%1-Time(seg)	2-Pos_Encoder	3-x_ref	4-Velo_Encoder(m/s)	5-Torque(N.m)
3.39	0.0	0.0		0.0	0.0
3.49	0.0	0.003		0.0	0.0
3.59	0.0	0.011		0.0	0.0
3.69	0.0	0.026		0.0	0.0
3.79	0.0	0.045		0.0	0.0
3.89	0.0	0.07		0.0	1.17302625
3.99	0.00465421145782	0.1		0.0460812970996	1.4887668125
4.09	0.0204069279134	0.135		0.157527148724	1.75131381563
4.19	0.0375917106867	0.175		0.170146346092	2.14819446703
4.29	0.0544184744358	0.221		0.168267652392	2.77387751016
4.39	0.0773315131664	0.27		0.226861774921	3.38330362957
4.49	0.114028178155	0.325		0.366966664791	3.74454163331
4.59	0.163971453905	0.384		0.494487762451	4.01925198499
4.69	0.226087272167	0.447		0.615008115768	4.17536564324
4.79	0.297511518002	0.515		0.714242398739	4.25826128946
4.89	0.376812130213	0.587		0.793005943298	4.35017383026
4.99	0.461661994457	0.663		0.840097546577	4.41551997362
5.09	0.553493142128	0.743		0.918311715126	4.43582323813
5.19	0.650157511234	0.827		0.957073092461	4.40030520716
5.29	0.751476109028	0.915		1.00315451622	4.35378609322
5.39	0.85637485981	1.007		1.04898750782	4.28137249195
5.49	0.96485376358	1.102		1.07227635384	4.17636237138
5.59	1.07583880424	1.2		1.09886169434	4.17636237138
5.69	1.18682384491	1.302		1.10985040665	4.06180706712
5.79	1.30067300797	1.407		1.11616826057	3.9839149302
5.89	1.41523826122	1.515		1.14565193653	3.85391146859
5.99	1.52962446213	1.626		1.14386188984	4.02331616087
6.09	1.64436864853	1.74		1.12318825722	3.70853952239
6.19	1.75785982609	1.857		1.13312149048	3.73317703508
6.29	1.75785982609	1.976		1.13312149048	6.82454991578
6.39	1.87833225727	2.098		1.20293450356	6.2604122121
6.49	2.00489091873	2.222		1.24077188969	6.01448124545
6.59	2.13932609558	2.349		1.34256088734	5.84537206045
6.69	2.27716231346	2.478		1.37836253643	5.7601016772
6.79	2.42090582848	2.609		1.40749526024	5.61226900474
6.89	2.56661844254	2.742		1.45533597469	5.48792830213
6.99	2.71609020233	2.877		1.47991871834	5.32961173596
7.09	2.86717319489	3.013		1.49409759045	4.89315278118
7.19	3.02040410042	3.152		1.515365839	5.15255875153
7.29	3.17327713966	3.292		1.51359331608	4.72187918819
7.39	3.32632899284	3.433		1.52872955799	4.53148338469
7.49	3.47705388069	3.576		1.4905526638	4.37115102311
7.59	3.62598872185	3.72		1.47460150719	4.2637024604
7.69	3.7738494873	3.865		1.47681713104	4.15466910718
7.79	3.91974115372	4.011		1.45712602139	4.08313384823
7.89	4.06276845932	4.158		1.41611373425	4.0789159817
7.99	4.19988870621	4.305		1.37120223045	4.22103269177
8.09	4.34130525589	4.453		1.41416406631	4.2143322113
8.19	4.47556114197	4.602		1.32749581337	4.40065174508
8.29	4.60176181793	4.752		1.26021718979	4.82780003529
8.39	4.71614789963	4.901		1.13253641129	5.55521901588
8.49	4.8264169693	5.051		1.10269010067	6.31240730715
8.59	4.93632793427	5.201		1.09731972218	7.10451328822
8.69	5.0555472374	5.351		1.18039023876	7.6834084797
8.79	5.18282222748	5.501		1.27095770836	8.19616056586
8.89	5.31815242767	5.651		1.35151135921	8.62166500464
8.99	5.46547603607	5.8		1.45687782764	8.85383100209
9.09	5.61655902863	5.949		1.51082849503	9.05666220094
9.19	5.78142547607	6.097		1.64687466621	9.03497724042
9.29	5.94342803955	6.245		1.60221135616	9.13022225819
9.39	6.10883140564	6.392		1.65224504471	9.13903751619
9.49	6.2719078064	6.538		1.61284554005	9.20904288228
9.59	6.43677425385	6.683		1.64866483212	9.17360754703
9.69	6.60378885269	6.827		1.65360975266	9.04170789616
9.79	6.76937150955	6.969		1.63943076134	8.91795630327
9.89	6.94014549255	7.11		1.68905687332	8.54593008647
9.99	7.10823392868	7.25		1.67909622192	8.16670228891
10.09	7.27471160889	7.389		1.646520257	7.85277478001
10.19	7.43814611435	7.525		1.63255405426	7.493374651
10.29	7.59531545639	7.66		1.57169127464	7.14461434295
10.39	7.74962043762	7.793		1.52599990368	6.74824345433
10.49	7.89211082458	7.924		1.42311453819	6.57501630445
10.59	8.0288734436	8.053		1.35408127308	6.376473837
10.69	8.15579032898	8.18		1.26916742325	6.31509172665
10.79	8.28073787689	8.304		1.24768662453	6.17764577699
10.89	8.39691448212	8.426		1.14848768711	6.16483859965
10.99	8.50968933105	8.545		1.12775111198	6.13885461984
11.09	8.61602020264	8.662		1.06330823898	6.20476682893
11.19	8.72127723694	8.776		1.04214632511	6.23185607302
11.29	8.82904052734	8.887		1.07583892345	6.11738673286
11.39	8.9312543869	8.995		1.02034628391	6.12999727979
11.49	9.03507900238	9.1		1.02796733379	6.0279517759
11.59	9.13621902466	9.202		1.01139593124	5.96689529916
11.69	9.23592662811	9.3		0.995285153389	5.87707738462
11.79	9.33635044098	9.395		0.994292616844	5.70757432308
11.89	9.43229866028	9.486		0.957693517208	5.59594119539
11.99	9.5296792984	9.574		0.96416258812	5.33518278792
12.09	9.62222671509	9.658		0.923681914806	5.18208325457
12.19	9.70922470093	9.738		0.86136585474	5.04597571455
12.29	9.79371643066	9.814		0.836552739143	4.84415282155
12.39	9.87319564819	9.886		0.786926865578	4.6937950197
12.49	9.94927406311	9.954		0.760784506798	4.50177075886
12.59	10.018371582	10.017		0.684130072594	4.38180159149
12.69	10.0847835541	10.076		0.664120137691	4.16222971617
12.79	10.1438560486	10.13		0.590726852417	4.04977137228
12.89	10.2038240433	10.18		0.593739748001	3.75898561752
12.99	10.2591371536	10.225		0.553135097027	3.51181527789
13.09	10.3065738678	10.265		0.469674736261	3.31271512505
13.19	10.352399826	10.3		0.456470727921	3.04435355627
13.29	10.393034935	10.33		0.406348437071	2.74765960032
13.39	10.425614357	10.355		0.322569072247	2.52655707015
13.49	10.4462003708	10.375		0.205859333277	2.49171893157
13.59	10.4692926407	10.389		0.230920478702	2.1980717692
13.69	10.4800329208	10.397		0.106341451406	2.08091804614
13.79	10.4852237701	10.4		0.051398370415	1.94169487076
13.89	10.4941740036	10.4		0.0895040631294	1.56163119184
13.99	10.5043773651	10.4		0.101024389267	1.11930953633
14.09	10.5151176453	10.4		0.107404880226	0.680709541348
14.19	10.5272903442	10.4		0.121725529432	0.221696293607
14.29	10.5349874496	10.4		0.0762113779783	0.221696293607
14.39	10.5308704376	10.4		-0.0411718674004	0.221696293607
14.49	10.5280065536	10.4		-0.0283577218652	-0.415085250245
14.59	10.527469635	10.4		-0.00537024345249	-0.68537711261
14.69	10.514043808	10.4		-0.1324660182	-0.642129450675
14.79	10.4803905487	10.4		-0.33320325613	-0.104735752804
14.89	10.470366478	10.4		-0.100244559348	-0.296858588762
14.99	10.4531812668	10.4		-0.170057713985	-0.201723114943
15.09	10.4334907532	10.4		-0.194959327579	-0.000894401724206
15.19	10.4145154953	10.4		-0.189748615026	0.167408019224
15.29	10.4066390991	10.4		-0.0787635743618	0.300110358651
15.39	10.4057435989	10.4		-0.00886178854853	0.0968576613929
15.49	10.4044904709	10.4		-0.0125305699185	0.00539394762681
15.59	10.404132843	10.4		-0.00358016253449	0.00539394762681
15.69	10.4039535522	10.4		-0.00177235761657	0.00539394762681
15.79	10.3971509933	10.4		-0.0673495829105	-0.0626207565225
15.89	10.3937501907	10.4		-0.0336747914553	-0.0663713404351
15.99	10.3864107132	10.4		-0.0733933374286	0.296882396804
16.09	10.3672571182	10.4		-0.191538691521	0.727434828562
16.19	10.3652877808	10.4		-0.0194959361106	0.680880172853
16.29	10.359380722	10.4		-0.0590726844966	0.824391577784
16.39	10.3563375473	10.4		-0.0304313823581	0.912497960003
16.49	10.344701767	10.4		-0.113430887461	1.240499832
16.59	10.3328876495	10.4		-0.116355285048	1.5758239244
16.69	10.3207149506	10.4		-0.121725529432	1.91169576598
16.79	10.3375415802	10.4		0.166601628065	1.50664784469
16.89	10.3504304886	10.4		0.127609759569	1.38598453011
16.99	10.3572330475	10.4		0.0673495829105	1.42119028855
17.09	10.3665418625	10.4		0.0930842235684	1.35205512985
17.19	10.3760290146	10.4		0.0939349606633	1.30230755843
17.29	10.384979248	10.4		0.0886178836226	1.23266515129
17.39	10.394288063	10.4		0.0930842235684	0.986578568082
17.49	10.4014482498	10.4		0.0716032460332	1.13880835564
17.59	10.4071769714	10.4		0.0567154437304	1.20731176004
17.69	10.4170227051	10.4		0.0984544679523	0.794995042017
17.79	10.4281215668	10.4		0.110985040665	0.599800018907
17.89	10.4333124161	10.4		0.051398370415	0.539973758508
17.99	10.4363555908	10.4		0.0304313823581	0.481850441329
18.09	10.4374294281	10.4		0.010740486905	0.437869448598
18.19	10.4374294281	10.4		0.0	0.390025251869
18.29	10.4374294281	10.4		0.0	0.322911363341
18.39	10.4374294281	10.4		0.0	0.247126113504
18.49	10.4374294281	10.403		0.0	0.167438751077
18.59	10.4374294281	10.411		0.0	0.164197187985
18.69	10.4374294281	10.426		0.0	0.276794734593
18.79	10.4374294281	10.445		0.0	0.546190380567
18.89	10.4374294281	10.47		0.0	0.677637421255
18.99	10.4374294281	10.5		0.0	1.40416408956
19.09	10.4406518936	10.535		0.0322214588523	1.8709743403
19.19	10.4583740234	10.575		0.177218034863	2.16712495314
19.29	10.4685773849	10.62		0.101024389267	2.83564447891
19.39	10.4828977585	10.669		0.143206492066	3.56674876551
19.49	10.5002613068	10.723		0.173637896776	4.35521294448
19.59	10.5255012512	10.782		0.249902427197	5.08711282502
19.69	10.5577230453	10.845		0.322214633226	5.08711282502
19.79	10.5931663513	10.912		0.350926786661	5.87211252126
19.89	10.6391716003	10.984		0.455495893955	6.75786963457
19.99	10.6996765137	11.059		0.603257417679	7.52346158555
20.09	10.6996765137	11.139		0.603257417679	8.1228974635
20.19	10.7702054977	11.222		0.698308944702	10.7654041086
20.29	10.8559503555	11.309		0.857448935509	10.8407820989
20.39	10.9511823654	11.399		0.952323257923	11.1696699445
20.49	11.0584077835	11.493		1.06164216995	11.455832225
20.59	11.1758375168	11.59		1.17429339886	11.6771345013
20.69	11.2955942154	11.691		1.19577431679	11.9884677756
20.79	11.4309244156	11.794		1.33812999725	12.007707999
20.89	11.5696554184	11.901		1.38552284241	11.9943275996
20.99	11.7252130508	12.01		1.54017877579	11.6441714198
21.09	11.8834562302	12.123		1.58243191242	11.2676378889
21.19	12.043847084	12.237		1.58626008034	10.86246505
21.29	12.2169475555	12.355		1.7120975256	10.0809975225
21.39	12.384677887	12.475		1.67730605602	9.48495838513
21.49	12.5475749969	12.597		1.62897384167	8.93545152331
21.59	12.7108306885	12.721		1.61461782455	8.28332393549
21.69	12.8663883209	12.847		1.5537904501	7.76011502097
21.79	13.0138912201	12.976		1.47502696514	7.31602025944
21.89	13.1535177231	13.106		1.38066649437	7.00938136675
21.99	13.2909955978	13.238		1.37299239635	6.66247086504
22.09	13.4186286926	13.371		1.27453780174	6.50542888927
22.19	13.5396385193	13.506		1.19634139538	6.45445000017
22.29	13.6568889618	13.643		1.17250323296	6.48213700008
22.39	13.7700223923	13.78		1.11835753918	6.61861565003
22.49	13.8813657761	13.919		1.11164045334	6.78056554252
22.59	13.9946775436	14.059		1.13133144379	6.92487974413
22.69	14.1074523926	14.2		1.11658537388	7.18779088486
22.79	14.222196579	14.341		1.14744210243	7.43383839819
22.89	14.3383731842	14.484		1.16176259518	7.63512277918
22.99	14.4613513947	14.626		1.21583724022	7.93956000063
23.09	14.5862989426	14.77		1.24768662453	8.14481725028
23.19	14.7141103745	14.913		1.27632796764	8.40550776263
23.29	14.8487243652	15.057		1.3310406208	8.51984849318
23.39	14.9888877869	15.201		1.39984357357	8.61416882193
23.49	15.1294088364	15.345		1.39130079746	8.77453296987
23.59	15.2735099792	15.489		1.44101548195	8.83920858644
23.69	15.423160553	15.633		1.49650800228	8.8429796139
23.79	15.5713796616	15.776		1.46751213074	8.90937582625
23.89	15.7260427475	15.919		1.54663026333	8.77295612181
23.99	15.8790950775	16.061		1.52872955799	8.72286975482
24.09	16.0355472565	16.203		1.54904055595	8.53391463967
24.19	16.1891365051	16.343		1.53409969807	8.45591383785
24.29	16.3371753693	16.483		1.47860705853	8.26596372703
24.39	16.4873638153	16.622		1.48700809479	8.42592367716
24.49	16.6368350983	16.76		1.47991871834	8.10689690472
24.59	16.7832641602	16.896		1.46249628067	7.99928560713
24.69	16.9304084778	17.031		1.45510554314	7.77603477321
24.79	17.0750465393	17.164		1.44459557533	7.56585514794
24.89	17.2161045074	17.296		1.3829253912	7.38384081657
24.99	17.3507194519	17.426		1.34614121914	7.29991861746
25.09	17.4864082336	17.555		1.3550914526	7.11665112786
25.19	17.6131458282	17.681		1.24252700806	7.10005150754
25.29	17.7443580627	17.805		1.31212949753	6.85572692839
25.39	17.8648300171	17.927		1.20472466946	6.83402286778
25.49	17.9844074249	18.047		1.17232775688	6.7759440405
25.59	18.0995101929	18.164		1.15102231503	6.73125981822
25.69	18.213716507	18.279		1.14207184315	6.6539326682
25.79	18.3284606934	18.391		1.12494313717	6.53100895069
25.89	18.4421310425	18.501		1.13491141796	6.34565952781
25.99	18.5504302979	18.607		1.07227635384	6.28661728751
26.09	18.6574764252	18.711		1.05809748173	6.13855052938
26.19	18.7593326569	18.811		1.01676619053	6.07998623822
26.29	18.860830307	18.908		1.00315451622	5.9072993072
26.39	18.9607162476	19.002		0.988975524902	5.72485093824
26.49	19.058095932	19.093		0.973804235458	5.55184517221
26.59	19.1527919769	19.18		0.93757712841	5.35332532749
26.69	19.2455177307	19.263		0.927262127399	5.10379289737
26.79	19.3319778442	19.342		0.862819135189	4.93717705382
26.89	19.4168281555	19.417		0.840097546577	4.67338217422
26.99	19.4934444427	19.489		0.766154766083	4.5413947284
27.09	19.5680904388	19.556		0.739073038101	4.32769787778
27.19	19.6402301788	19.619		0.72140276432	4.056463795
27.29	19.7066421509	19.678		0.657544672489	3.81430770775
27.39	19.7671470642	19.732		0.597284495831	3.64097921849
27.49	19.8229980469	19.781		0.558505356312	3.41873014832
27.59	19.8765220642	19.826		0.53523427248	3.11133231674
27.69	19.9257488251	19.866		0.487398326397	2.83811854253
27.79	19.9665622711	19.901		0.408138513565	2.63603009414
27.89	20.0009326935	19.931		0.341905534267	2.46425679236
27.99	20.0208034515	19.955		0.196731716394	2.50690005656
28.09	20.0437164307	19.975		0.229130402207	2.26596427545
28.19	20.0544567108	19.989		0.107404880226	2.29103642395
28.29	20.0630493164	19.997		0.0850731730461	2.16001464078
28.39	20.0739688873	20.0		0.10919495672	1.84402883835
28.49	20.0823822021	20.0		0.0833008140326	1.52922872726
28.59	20.090795517	20.0		0.0823437348008	1.13959567727
28.69	20.0975971222	20.0		0.0680230855942	0.82745930477
28.79	20.1051158905	20.0		0.0744390264153	0.506509937146
28.89	20.1113815308	20.0		0.0626528412104	0.199037971716
28.99	20.1119194031	20.0		0.00531707331538	0.00304383727225
29.09	20.1119194031	20.0		0.0	0.00304383727225
29.19	20.1119194031	20.0		0.0	0.00304383727225
29.29	20.1119194031	20.0		0.0	-0.679811270328
29.39	20.1035060883	20.0		-0.0833008140326	-0.718305071648
29.49	20.0782661438	20.0		-0.249902427197	-0.326256782241
29.59	20.0673465729	20.0		-0.10919495672	-0.415003802009
29.69	20.0573215485	20.0		-0.0992520153522	-0.469655210904
29.79	20.0501613617	20.0		-0.0708943083882	-0.557314094907
29.89	20.0390625	20.0		-0.109886169434	-0.494339592708
29.99	20.0277843475	20.0		-0.112775117159	-0.420153066719
30.09	20.0209827423	20.0		-0.0680230855942	-0.431638130023
30.19	20.0127487183	20.0		-0.0815284624696	-0.37685915851
30.29	20.0054092407	20.0		-0.0733933374286	-0.16960037133
30.39	19.9973545074	20.0		-0.0805536583066	-0.304240167098
30.49	19.9944896698	20.0		-0.0283577218652	-0.364828075194
30.59	19.9944896698	20.0		0.0	-0.392092633837
30.69	19.9944896698	20.0		0.0	-0.404361685227
30.79	19.9944896698	20.0		0.0	-0.409882758352
30.89	19.9944896698	20.0		0.0	-0.412367241258
30.99	19.9944896698	20.0		0.0	-0.413485258566
31.09	19.9944896698	20.0		0.0	-0.413988366355
31.19	19.9944896698	20.0		0.0	-0.41421476486
31.29	19.9944896698	20.0		0.0	-0.414316644187
31.39	19.9944896698	20.0		0.0	-0.414362489884
31.49	19.9944896698	20.0		0.0	-0.414383120448
31.59	19.9944896698	20.0		0.0	-0.414392404201
31.69	19.9944896698	20.0		0.0	-0.414396581891
31.79	19.9944896698	20.0		0.0	-0.414398461851
31.89	19.9944896698	20.0		0.0	-0.414399307833
31.99	19.9928779602	20.0		-0.0161107294261	-0.414399688525
32.09	19.9778404236	20.0		-0.150366812944	0.159079640164
32.19	19.9683532715	20.0		-0.0930140316486	0.319234338074
32.29	19.9678153992	20.0		-0.00537024345249	0.255415452133
32.39	19.9678153992	20.0		0.0	0.26612095346
32.49	19.9678153992	20.0		0.0	0.310362429057
32.59	19.9678153992	20.0		0.0	0.369695093076
32.69	19.9678153992	20.0		0.0	0.435818791884
32.79	19.9678153992	20.0		0.0	0.504998456348
32.89	19.9678153992	20.0		0.0	0.575553305357
32.99	19.9678153992	20.0		0.0	0.646726987411
33.09	19.9678153992	20.0		0.0	0.718179144335
33.19	19.9672775269	20.0		-0.00537024345249	0.815823864951
33.29	19.9594020844	20.0		-0.0779837444425	1.09142673923
33.39	19.9483032227	20.0		-0.110985040665	1.41244978265
33.49	19.9375629425	20.0		-0.106341451406	1.68880290219
33.59	19.9636974335	19.998		0.258764207363	1.03648480599
33.69	19.9760494232	19.996		0.123515605927	0.878164662694
33.79	19.9833889008	19.992		0.0733933374286	0.844856848212
33.89	19.9869689941	19.988		0.0358016230166	0.664791331696
33.99	19.9943084717	19.983		0.0733933374286	0.811668099263
34.09	19.9982471466	19.976		0.0389918722212	0.811668099263
34.19	20.003080368	19.969		0.048332195729	0.486753894668
34.29	20.0032596588	19.961		0.00179008126725	0.272224252601
34.39	20.0032596588	19.952		0.0	0.17032616367
34.49	20.0032596588	19.942		0.0	0.17032616367
34.59	20.0032596588	19.931		0.0	-0.488109601857
34.69	20.0032596588	19.919		0.0	-0.448361320835
34.79	20.0063018799	19.906		0.0298346895725	-1.18337509438
34.89	19.9717540741	19.893		-0.343695580959	-0.618090542469
34.99	19.9608345032	19.878		-0.10919495672	-0.865315244111
35.09	19.9479465485	19.863		-0.127609759569	-1.07741435985
35.19	19.9280757904	19.847		-0.196908935905	-1.09370021193
35.29	19.9006881714	19.829		-0.271170705557	-0.98202534537
35.39	19.8731212616	19.811		-0.273882418871	-0.930470905416
35.49	19.8435840607	19.792		-0.293573349714	-0.850052157437
35.59	19.8093929291	19.773		-0.33852031827	-0.630287470847
35.69	19.7880916595	19.752		-0.210910573602	-0.780702861881
35.79	19.7635669708	19.731		-0.245241135359	-0.823730537846
35.89	19.7420864105	19.708		-0.212682902813	-0.884403492031
35.99	19.7227535248	19.685		-0.193328782916	-1.04705857141
36.09	19.6982288361	19.661		-0.243451058865	-1.01647385714
36.19	19.6735248566	19.636		-0.244585365057	-1.05378923571
36.29	19.6529388428	19.611		-0.205859333277	-1.19086615607
36.39	19.6386184692	19.584		-0.143206492066	-1.49010952023
36.49	19.6155261993	19.557		-0.228634148836	-1.5706902841
36.59	19.5877799988	19.529		-0.277462601662	-1.55018337785
36.69	19.5637931824	19.5		-0.237495943904	-1.70094752003
36.79	19.5476818085	19.47		-0.161107316613	-2.08066063401
36.89	19.5235157013	19.44		-0.241660967469	-2.23916478531
36.99	19.4912948608	19.409		-0.319024384022	-2.19363040339
37.09	19.449048996	19.376		-0.422459185123	-2.00182593152
37.19	19.4001789093	19.344		-0.486902117729	-1.74056166919
37.29	19.3482666016	19.31		-0.513983666897	-1.30744675113
37.39	19.2942066193	19.276		-0.535252034664	-1.11621903801
37.49	19.2451591492	19.241		-0.490482270718	-0.899945817105
37.59	19.1986179352	19.205		-0.460812985897	-0.740659867697
37.69	19.1569099426	19.168		-0.417088955641	-0.653677440464
37.79	19.1189594269	19.131		-0.379497230053	-0.634519598209
37.89	19.0842323303	19.093		-0.342065036297	-0.635196319194
37.99	19.0674057007	19.054		-0.168267652392	-1.08994659364
38.09	19.0280246735	19.015		-0.389918655157	-0.894395967137
38.19	18.9977722168	18.974		-0.302523732185	-1.00897143521
38.29	18.9664459229	18.933		-0.313264220953	-1.32494839585
38.39	18.939414978	18.892		-0.267626017332	-1.16910677813
38.49	18.9048671722	18.849		-0.345485657454	-1.43785230016
38.59	18.8687076569	18.806		-0.361596405506	-1.52936828507
38.69	18.8472270966	18.763		-0.210597798228	-2.01988397828
38.79	18.8175125122	18.718		-0.2971534729	-2.28791329023
38.89	18.7845745087	18.673		-0.329374939203	-2.5436559806
38.99	18.7425079346	18.627		-0.416504055262	-2.60911094127
39.09	18.6939964294	18.581		-0.485112011433	-2.59401017357
39.19	18.637430191	18.534		-0.560065031052	-2.43561282811
39.29	18.5810432434	18.486		-0.563875555992	-2.39156452265
39.39	18.524477005	18.438		-0.560065031052	-2.35282278519
39.49	18.4684467316	18.389		-0.552975594997	-2.33144825334
39.59	18.415102005	18.339		-0.533444166183	-2.394770714
39.69	18.3592510223	18.289		-0.558505356312	-2.3690193213
