%1-Time(seg)	2-Pos_Encoder	3-x_ref	4-Velo_Encoder(m/s)	5-Torque(N.m)
3.22	0.0	0.0		0.0	0.0
3.32	0.0	0.003		0.0	0.0
3.42	0.0	0.012		0.0	0.0
3.52	0.0	0.026		0.0	0.312807
3.62	0.0	0.045		0.0	0.62292065
3.72	0.0	0.07		0.0	1.0443440425
3.82	0.000537024461664	0.1		0.00537024345249	1.58194481913
3.92	0.0170057732612	0.135		0.162897393107	1.85306466861
4.02	0.0395607948303	0.176		0.223317071795	2.14469410087
4.12	0.0590726807714	0.221		0.195118874311	2.75607184539
4.22	0.0837758034468	0.271		0.247031211853	3.31099333043
4.32	0.117429330945	0.325		0.328181535006	3.82201024869
4.42	0.168446660042	0.384		0.508383095264	4.02186636191
4.52	0.231457531452	0.448		0.622097432613	4.14836286286
4.62	0.304313838482	0.515		0.721349596977	4.22930203829
4.72	0.385762542486	0.587		0.812696874142	4.20990516723
4.82	0.471149414778	0.664		0.835371255875	4.28419907525
4.92	0.561906516552	0.744		0.907571196556	4.32350808386
5.02	0.657854855061	0.828		0.9594835639	4.29522263774
5.12	0.758278429508	0.916		0.984544754028	4.25187018698
5.22	0.859955072403	1.007		1.01497602463	4.23416008414
5.32	0.964495837688	1.102		1.04540741444	4.20174578786
5.42	1.07100570202	1.2		1.052780509	4.15523460454
5.52	1.17894756794	1.302		1.07762885094	4.12219907204
5.62	1.28635239601	1.407		1.07225871086	4.17818133242
5.72	1.39662146568	1.515		1.09177231789	4.15433809959
5.82	1.50796449184	1.626		1.11343050003	4.00044364481
5.92	1.6203815937	1.74		1.11304044724	4.10650364017
6.02	1.73315668106	1.857		1.12775111198	4.15423063808
6.12	1.84664785862	1.976		1.13312149048	4.43638028713
6.22	1.96013903618	2.098		1.12367463112	4.55675862921
6.32	2.07721042633	2.223		1.17071306705	4.65578963314
6.42	2.19499778748	2.349		1.17608332634	4.82104008492
6.52	2.31618618965	2.478		1.1981137991	4.93751628821
6.62	2.43826961517	2.609		1.2208353281	5.1254010797
6.72	2.56429123878	2.742		1.26021718979	5.26684673586
6.82	2.69353508949	2.877		1.27786970139	5.37648278114
6.92	2.82582211494	3.014		1.3228700161	5.51056300151
7.02	2.96276330948	3.152		1.35408127308	5.58113735068
7.12	3.10489583015	3.292		1.42132461071	5.57145880781
7.22	3.25078749657	3.434		1.4589163065	5.53872896351
7.32	3.39900612831	3.576		1.46573984623	5.52329653358
7.42	3.54973101616	3.72		1.50545835495	5.43005419011
7.52	3.70081377029	3.865		1.51082849503	5.39543763555
7.62	3.85422372818	4.011		1.51891040802	5.317448936
7.72	4.00870752335	4.158		1.54305005074	5.1494162712
7.82	4.16498184204	4.306		1.56274080276	5.26664532204
7.92	4.32089805603	4.454		1.52858901024	4.92838964492
8.02	4.47824621201	4.603		1.57169127464	4.78605809021
8.12	4.63380432129	4.752		1.55558073521	4.6677513906
8.22	4.78775119781	4.902		1.50928425789	4.56870387577
8.32	4.94080305099	5.052		1.53051948547	4.4892349941
8.42	5.09474992752	5.202		1.52422738075	4.35375074734
8.52	5.24923372269	5.352		1.54305005074	4.2056628363
8.62	5.40103244781	5.502		1.51619875431	4.09910977634
8.72	5.55032539368	5.651		1.4781460762	4.05192264935
8.82	5.69353199005	5.801		1.43027484417	4.08435744221
8.92	5.83548545837	5.949		1.41774427891	4.19292609899
9.02	5.9727845192	6.098		1.3576259613	4.30278524455
9.12	6.10704040527	6.245		1.34256088734	4.30278524455
9.22	6.24147558212	6.392		1.34256088734	4.77295536005
9.32	6.36642313004	6.538		1.23533332348	4.56378191202
9.42	6.49208688736	6.683		1.25663709641	5.14740236041
9.52	6.61506557465	6.827		1.21760964394	5.50759606218
9.62	6.61506557465	6.97		1.21760964394	5.94920972798
9.72	6.73858118057	7.111		1.22292661667	10.0949861276
9.82	6.86478185654	7.251		1.26021718979	9.77859250742
9.92	6.99366760254	7.389		1.27609753609	9.96305837834
10.02	7.12881851196	7.526		1.35151135921	10.2480500203
10.12	7.27488899231	7.661		1.4589163065	10.4094172591
10.22	7.4265089035	7.794		1.50118672848	10.5059025166
10.32	7.58314085007	7.925		1.56632113457	10.5360933825
10.42	7.74961853027	8.054		1.66477560997	10.2744290221
10.52	7.91752815247	8.18		1.6606991291	9.98678230995
10.62	8.08687019348	8.305		1.69341683388	9.58772028948
10.72	8.25782299042	8.426		1.69082903862	9.07746863026
10.82	8.41946697235	8.546		1.61465334892	8.48703613362
10.92	8.57824707031	8.662		1.58780217171	8.21115826013
11.02	8.72861385345	8.776		1.47242963314	7.69623546706
11.12	8.87182044983	8.887		1.43027484417	7.23961971018
11.22	9.00500297546	8.995		1.33003032207	6.85079736958
11.32	9.13012981415	9.1		1.22673213482	6.47299556631
11.42	9.24648475647	9.202		1.16176259518	6.14795625484
11.52	9.35388946533	9.3		1.07404875755	5.85825681468
11.62	9.45144844055	9.395		0.956464886665	5.67188281661
11.72	9.54238414764	9.487		0.907571196556	5.48872026747
11.82	9.62759208679	9.574		0.852078616619	5.31147162036
11.92	9.70689296722	9.658		0.785154402256	5.16134822916
12.02	9.78368759155	9.738		0.767944812775	4.97215745312
12.12	9.85582828522	9.814		0.714260101318	4.81760885391
12.22	9.92295646667	9.886		0.664634048939	4.69704123426
12.32	9.9902639389	9.954		0.67307060957	4.48105280542
12.42	10.0547065735	10.017		0.631793379784	4.24627551244
12.52	10.1119890213	10.076		0.571035921574	4.1200034806
12.62	10.1681976318	10.131		0.560295462608	3.91915531627
12.72	10.2195730209	10.18		0.50866663456	3.74103764232
12.82	10.2661151886	10.225		0.4636310637	3.57684468904
12.92	10.3114042282	10.265		0.452890574932	3.34441211007
13.02	10.3561563492	10.301		0.441317021847	3.00352919953
13.12	10.3948221207	10.331		0.386657565832	2.74747438979
13.22	10.4247169495	10.355		0.295983731747	2.56903547541
13.32	10.4433336258	10.375		0.186168447137	2.52933346393
13.42	10.4596233368	10.389		0.162897393107	2.37606580877
13.52	10.4655303955	10.397		0.0584878027439	2.35831961395
13.62	10.4737644196	10.4		0.0805536583066	2.11521982628
13.72	10.4816408157	10.4		0.0787635743618	1.78062467182
13.82	10.4880847931	10.4		0.0631793364882	1.46028560232
13.92	10.4941711426	10.4		0.0608627647161	1.15650102104
14.02	10.5015106201	10.4		0.0733933374286	0.80063945947
14.12	10.5093870163	10.4		0.0779837444425	0.472617006761
14.22	10.520485878	10.4		0.110985040665	0.0266979030427
14.32	10.5052700043	10.4		-0.150366812944	0.262046806369
14.42	10.4877271652	10.4		-0.173691049218	0.418768312866
14.52	10.4678573608	10.4		-0.198699012399	0.60419074079
14.62	10.447271347	10.4		-0.203821122646	0.800642083355
14.72	10.4293708801	10.4		-0.179008126259	0.93219543751
14.82	10.4163036346	10.4		-0.129382103682	0.978978196879
14.92	10.4052047729	10.4		-0.109886169434	1.1694881886
15.02	10.3948221207	10.4		-0.103824712336	0.974717684868
15.12	10.3844394684	10.4		-0.103824712336	1.30414695819
15.22	10.372625351	10.4		-0.116975605488	1.47834188119
15.32	10.3626012802	10.4		-0.100244559348	1.65782234653
15.42	10.3538303375	10.4		-0.0877139791846	1.84346530594
15.52	10.3642129898	10.4		0.10279674083	1.56522288767
15.62	10.3744163513	10.4		0.100244559348	1.39900579945
15.72	10.3833665848	10.4		0.0895040631294	1.29694735975
15.82	10.3948230743	10.4		0.112318821251	0.986603061889
15.92	10.4044895172	10.4		0.096664391458	1.14497937785
16.02	10.4137983322	10.4		0.0921625941992	0.851307220033
16.12	10.4225692749	10.4		0.0877139791846	0.712738999015
16.22	10.4295501709	10.4		0.069813169539	0.597357799557
16.32	10.4338464737	10.4		0.0425365865231	0.526926009801
16.42	10.440290451	10.4		0.0644429177046	0.36706520441
16.52	10.4488830566	10.4		0.0859238952398	0.116430091985
16.62	10.4494199753	10.4		0.00531707331538	0.101057541393
16.72	10.4495992661	10.4		0.00179008126725	0.00770464362693
16.82	10.4495992661	10.4		0.0	0.00770464362693
16.92	10.4495992661	10.4		0.0	0.00770464362693
17.02	10.4497785568	10.4		0.00177235761657	-0.285458514349
17.12	10.4411859512	10.4		-0.0850731730461	-0.160491081457
17.22	10.4293718338	10.4		-0.118145368993	0.000258013344262
17.32	10.4197053909	10.4		-0.0957073122263	0.0610973560049
17.42	10.4195261002	10.4		-0.00177235761657	0.0610973560049
17.52	10.4168405533	10.4		-0.0268512200564	0.0610973560049
17.62	10.4139766693	10.4		-0.0286413002759	-0.112783565934
17.72	10.4121866226	10.4		-0.0177235770971	-0.13167410467
17.82	10.4001932144	10.4		-0.119935445487	0.122785652898
17.92	10.3880205154	10.4		-0.121725529432	0.339724543804
18.02	10.3871250153	10.4		-0.00886178854853	0.267823294712
18.12	10.3871250153	10.4		0.0	0.23395248262
18.22	10.3871250153	10.4		0.0	0.234726617179
18.32	10.3871250153	10.403		0.0	0.251090977731
18.42	10.3871250153	10.411		0.0	0.352672689979
18.52	10.3871250153	10.426		0.0	0.57404071049
18.62	10.3871250153	10.445		0.0	0.953983069721
18.72	10.3865880966	10.47		-0.00537024345249	1.40531413137
18.82	10.3771009445	10.5		-0.0939349606633	2.25912910912
18.92	10.3932113647	10.535		0.161107316613	2.5092695991
19.02	10.4044885635	10.575		0.112775117159	3.1338333196
19.12	10.4161243439	10.62		0.115203246474	3.88541199382
19.22	10.4306240082	10.669		0.144996598363	4.71065289722
19.32	10.4481668472	10.724		0.175427958369	5.62307380375
19.42	10.4701852798	10.782		0.217999994755	6.60515446169
19.52	10.4950675964	10.845		0.248821288347	7.64170675776
19.62	10.5285425186	10.913		0.334745168686	8.63915829099
19.72	10.5711460114	10.984		0.421821147203	9.64666573095
19.82	10.620552063	11.06		0.494062423706	10.6129878289
19.92	10.6808776855	11.139		0.597284495831	11.543968523
20.02	10.7440671921	11.222		0.630108594894	12.5664138354
20.12	10.821398735	11.309		0.773315131664	13.3890577259
20.22	10.9035634995	11.399		0.813512086868	14.2523609767
20.32	10.9970054626	11.493		0.932632386684	14.9914806895
20.42	11.0936698914	11.591		0.96485376358	15.7937405603
20.52	11.1980314255	11.691		1.03151226044	16.5425157521
20.62	11.3054361343	11.795		1.07225871086	17.2863573385
20.72	11.4235811234	11.901		1.18145370483	17.8283480523
20.82	11.5454854965	12.011		1.20697557926	18.4012758735
20.92	11.6695384979	12.123		1.23873639107	18.9696453931
21.02	11.8009300232	12.238		1.29913818836	19.4132146769
21.12	11.9299945831	12.355		1.2906485796	19.9776771046
21.22	12.0660409927	12.475		1.36046171188	20.3613009471
21.32	12.2011919022	12.597		1.33812999725	20.8320646762
21.42	12.338312149	12.721		1.37120223045	21.2534363543
21.52	12.4679136276	12.848		1.29422879219	21.8687068594
21.62	12.6089715958	12.976		1.3966178894	22.1975205867
21.72	12.7425117493	13.106		1.33540070057	22.728968764
21.82	12.8850021362	13.238		1.42311453819	23.0475569438
21.92	13.0249862671	13.372		1.3842113018	23.4650306247
22.02	13.1692667007	13.507		1.44280552864	23.7948872811
22.12	13.3121147156	13.643		1.42669475079	24.1601932765
22.22	13.4592590332	13.781		1.44083988667	24.4183312244
22.32	13.6049718857	13.92		1.45712602139	24.745487051
22.42	13.7472829819	14.059		1.40725195408	25.1715874229
22.52	13.893532753	14.2		1.46070623398	25.4205243403
22.62	14.0376338959	14.342		1.43922531605	25.7978742031
22.72	14.1783342361	14.484		1.39307296276	26.2719938914
22.82	14.3168869019	14.627		1.38373291492	26.7305350011
22.92	14.4520378113	14.77		1.34972119331	27.2985667505
23.02	14.5845041275	14.914		1.30977237225	27.8902035377
23.12	14.7158956528	15.058		1.31391978264	27.8902035377
23.22	14.8480033875	15.202		1.32107996941	28.547921842
23.32	14.9831542969	15.346		1.33635759354	29.1727318289
23.42	15.1095342636	15.49		1.26379728317	29.736846573
23.52	15.2384204865	15.633		1.27432513237	30.5458682079
23.62	15.2384204865	15.776		1.27432513237	35.0473414435
23.72	15.3617572784	15.919		1.23157584667	34.7832773996
23.82	15.488494873	16.062		1.26737761497	34.7640260798
23.92	15.6120109558	16.203		1.21093738079	34.9409054859
24.02	15.7331991196	16.344		1.21009492874	35.1964324687
24.12	15.8601160049	16.484		1.26916742325	35.3171121109
24.22	15.9868535995	16.622		1.24252700806	35.4568466999
24.32	16.1112651825	16.76		1.24231624603	35.648138515
24.42	16.235496521	16.896		1.24231624603	35.8450998317
24.52	16.3604450226	17.031		1.22497701645	35.9682586743
24.62	16.4877204895	17.165		1.27095770836	36.0089951534
24.72	16.6128463745	17.297		1.24947667122	36.133669069
24.82	16.742269516	17.427		1.26885175705	36.1083448311
24.92	16.8681125641	17.555		1.25663709641	36.146160174
25.02	16.9987888336	17.681		1.2920486927	36.0166983283
25.12	17.125705719	17.806		1.26737761497	35.9855829977
25.22	17.2592449188	17.928		1.33540070057	35.785502349
25.32	17.3843708038	18.048		1.23710560799	35.759362307
25.42	17.5120029449	18.165		1.27453780174	35.5965830382
25.52	17.63712883	18.28		1.23710560799	35.4599723672
25.62	17.7556324005	18.392		1.1733007431	35.4369425652
25.72	17.8771781921	18.501		1.21367514133	35.2676429044
25.82	18.0015888214	18.608		1.23001623154	34.942019307
25.92	18.1217041016	18.711		1.18925189972	34.7451224381
26.02	18.2473678589	18.812		1.2548469305	34.3244975972
26.12	18.3712406158	18.909		1.21269237995	33.9355251687
26.22	18.4929656982	19.003		1.21546506882	33.5274250759
26.32	18.6111106873	19.093		1.17966353893	33.1712312842
26.42	18.7292556763	19.18		1.15653276443	32.7190590779
26.52	18.8520545959	19.263		1.22799575329	32.090211585
26.62	18.9685897827	19.342		1.1635529995	31.5730127133
26.72	19.0815429688	19.418		1.10739338398	31.070993221
26.82	19.1950340271	19.489		1.13491141796	30.4994506994
26.92	19.310136795	19.556		1.15102231503	29.7710578147
27.02	19.4213008881	19.619		1.08808875084	29.0948010166
27.12	19.5338973999	19.678		1.1259611845	28.2892979575
27.22	19.6414813995	19.732		1.06518697739	27.5817240809
27.32	19.7524662018	19.781		1.09886169434	26.6540945864
27.42	19.8595123291	19.826		1.07046854496	25.6733348139
27.52	19.9672756195	19.866		1.06695914268	24.5528391662
27.62	20.076292038	19.901		1.08836936951	23.1632013748
27.72	20.1845912933	19.931		1.08299911022	21.5598241187
27.82	20.2923545837	19.955		1.06518697739	19.7785506034
27.92	20.4083518982	19.975		1.1599727869	17.4839447715
28.02	20.5161151886	19.989		1.07762885094	15.2122331472
28.12	20.6294269562	19.997		1.1201300621	12.4855431662
28.22	20.7352199554	20.0		1.0579379797	9.65105592481
28.32	20.8567657471	20.0		1.21546506882	6.08238041616
28.42	20.9643497467	20.0		1.07404875755	2.71767543727
28.52	21.0554656982	20.0		0.91115128994	2.71767543727
28.62	21.1079158783	20.0		0.519300758839	2.71767543727
28.72	21.1438961029	20.0		0.356243908405	-5.51608018765
28.82	21.1587543488	20.0		0.14857673645	-7.81514883444
28.92	21.1276073456	20.0		-0.30839022994	-9.2065642255
29.02	21.0713996887	20.0		-0.5620855093	-10.2800326515
29.12	20.9980068207	20.0		-0.733933329582	-11.1789374432
29.22	20.9101142883	20.0		-0.870227634907	-11.7988438494
29.32	20.8186416626	20.0		-0.912941455841	-12.3695519822
29.42	20.7255573273	20.0		-0.930842280388	-12.806468142
29.52	20.627281189	20.0		-0.97125184536	-12.9472609139
29.62	20.5322284698	20.0		-0.94874304533	-13.0422866613
29.72	20.4255390167	20.0		-1.04421401024	-12.6428124976
29.82	20.3181343079	20.0		-1.07225871086	-12.0309306239
29.92	20.2048225403	20.0		-1.1201300621	-11.0951355308
30.02	20.086856842	20.0		-1.16621124744	-9.83168348884
30.12	19.9642372131	20.0		-1.21406507492	-8.23272981998
30.22	19.8428688049	20.0		-1.21188497543	-6.47105516899
30.32	19.7129096985	20.0		-1.28495931625	-4.21741632605
30.42	19.5836658478	20.0		-1.2796421051	-1.76608209672
30.52	19.4637298584	20.0		-1.19935441017	0.716069056476
30.62	19.366350174	20.0		-0.962390184402	2.94422957541
30.72	19.2652111053	20.0		-0.999609708786	5.64271955894
30.82	19.1771392822	20.0		-0.880719959736	8.28582180152
30.92	19.09998703	20.0		-0.762113690376	10.9535820607
31.02	19.0410938263	20.0		-0.583105623722	13.4509356773
31.12	18.9925823212	20.0		-0.480308890343	15.9731170548
31.22	18.951051712	20.0		-0.415298849344	18.6020471747
31.32	18.9181137085	20.0		-0.329374939203	21.2013404786
31.42	18.8903675079	20.0		-0.274715423584	23.8553982154
31.52	18.8681697845	20.0		-0.221970081329	26.4998486969
31.62	18.8520584106	20.0		-0.161107316613	29.1158639136
31.72	18.840423584	20.0		-0.115203246474	31.7397137611
31.82	18.8332633972	20.0		-0.0716032460332	34.3216619425
31.92	18.8311157227	20.0		-0.02148097381	36.8506983741
32.02	18.8311157227	20.0		0.0	39.3939102684
32.12	18.8305778503	20.0		-0.00537024345249	41.9785636208
32.22	18.814825058	20.0		-0.155967488885	43.9560536293
32.32	18.8402442932	20.0		0.254191547632	43.9291428832
32.42	18.8778362274	20.0		0.372195124626	43.3881667974
32.52	18.9163227081	20.0		0.381056845188	42.8437675588
32.62	18.9626865387	20.0		0.4636310637	42.0687666515
32.72	19.0119132996	20.0		0.492272377014	41.2968737432
32.82	19.0611400604	20.0		0.487398326397	40.5614419344
32.92	19.1180648804	20.0		0.569245815277	39.6388076205
33.02	19.1830444336	20.0		0.643365859985	38.5685721792
33.12	19.2467708588	20.0		0.630959272385	37.5976174806
33.22	19.3156890869	20.0		0.689181268215	36.5265516163
33.32	19.3869342804	19.998		0.712452352047	35.4471894773
33.42	19.4631919861	19.992		0.755024373531	34.2209977648
33.52	19.5451774597	19.981		0.818067193031	32.7969389942
33.62	19.6191082001	19.967		0.731983721256	31.5355062974
33.72	19.7061061859	19.949		0.869979441166	29.8874415838
33.82	19.7922096252	19.927		0.861029028893	28.2695387127
33.92	19.8822498322	19.901		0.889723539352	26.5141924207
34.02	19.9764080048	19.871		0.941582739353	24.6151565893
34.12	20.0719985962	19.837		0.955903410912	22.4874669652
34.22	20.1740341187	19.8		1.00847148895	19.9461661343
34.32	20.2800064087	19.759		1.04746341705	17.0440300105
34.42	20.3886642456	19.715		1.08478927612	13.7435900047
34.52	20.5073471069	19.666		1.1733007431	9.88902500212
34.62	20.6208381653	19.615		1.12190246582	5.76982750095
34.72	20.7303905487	19.56		1.08291053772	1.42646237543
34.82	20.8061103821	19.501		0.757204353809	1.42646237543
34.92	20.8637504578	19.439		0.576406180859	1.42646237543
35.02	20.9101142883	19.374		0.457268297672	-10.5592372779
35.12	20.9328479767	19.306		0.227340310812	-14.9259747751
35.22	20.9042072296	19.234		-0.286412984133	-18.2855673988
35.32	20.8451347351	19.159		-0.584877967834	-21.4212755794
35.42	20.7697715759	19.081		-0.74616253376	-24.5891900108
35.52	20.6870689392	19.0		-0.8270175457	-27.8691672548
35.62	20.5955963135	18.916		-0.905674695969	-31.1507327647
35.72	20.4924869537	18.829		-1.03108668327	-34.2476767441
35.82	20.3872299194	18.739		-1.05077767372	-37.4643480348
35.92	20.2717704773	18.646		-1.14317071438	-40.4951873657
36.02	20.152551651	18.55		-1.19040417671	-43.5082538146
36.12	20.0290355682	18.451		-1.22292661667	-46.2015192166
36.22	19.9053401947	18.35		-1.23515617847	-47.2680823974
36.32	19.7746639252	18.246		-1.30675923824	-47.4482308289
36.42	19.6450614929	18.14		-1.28318691254	-47.375971373
36.52	19.5106258392	18.03		-1.34256088734	-47.0866321178
36.62	19.3763694763	17.918		-1.34077095985	-47.0866321178
36.72	19.2405014038	17.804		-1.34344696999	-46.811023203
36.82	19.1066036224	17.688		-1.33719074726	-46.5399016914
36.92	18.970199585	17.569		-1.35053646564	-46.3120907611
37.02	18.8314685822	17.447		-1.37357711792	-46.0257245925
37.12	18.6907672882	17.324		-1.40521371365	-45.7559910666
37.22	18.5500659943	17.198		-1.37941551208	-45.52711348
37.32	18.5500659943	17.07		-1.37941551208	-45.281558566
37.42	18.4048900604	16.939		-1.44996595383	-48.2608076047
37.52	18.2589988708	16.807		-1.44447147846	-47.3087946721
37.62	18.1136436462	16.673		-1.43915438652	-46.8124913525
37.72	17.9759864807	16.536		-1.37657237053	-46.7152561086
37.82	17.8358230591	16.398		-1.39984357357	-46.6652714989
37.92	17.6913642883	16.257		-1.42852020264	-46.5172134245
38.02	17.5426082611	16.115		-1.4875575304	-46.395147291
38.12	17.3933162689	15.971		-1.491137743	-46.259326281
38.22	17.2393684387	15.826		-1.52245521545	-46.0839443264
38.32	17.0850639343	15.678		-1.54305005074	-45.9512736969
38.42	16.933801651	15.529		-1.51082849503	-45.9729994136
38.52	16.7753791809	15.379		-1.5667642355	-45.7808572361
38.62	16.618927002	15.226		-1.56274080276	-45.7169982563
38.72	16.4612216949	15.072		-1.55967462063	-45.6661929653
38.82	16.3004722595	14.917		-1.58980464935	-45.5528280844
38.92	16.1373958588	14.761		-1.62897384167	-45.420922638
39.02	15.9693069458	14.603		-1.66247141361	-45.1964001871
39.12	15.7967433929	14.443		-1.72384822369	-44.9494225842
39.22	15.6198835373	14.283		-1.76860022545	-44.6510489129
