%1-Time(seg)	2-Pos_Encoder	3-x_ref	4-Velo_Encoder(m/s)	5-Torque(N.m)
3.32	0.0	0.0		0.0	0.0
3.42	0.0	0.003		0.0	0.0
3.52	0.0	0.011		0.0	0.0
3.62	0.0	0.026		0.0	0.0
3.72	0.0	0.045		0.0	0.0
3.82	0.0	0.07		0.0	0.0
3.92	0.0	0.1		0.0	0.0
4.02	0.0	0.135		0.0	2.606725
4.12	-0.00590726872906	0.176		-0.0584878027439	3.2185835
4.22	0.0239870883524	0.221		0.298943579197	3.235590325
4.32	0.053881444037	0.27		0.298943579197	3.62867239625
4.42	0.101855620742	0.325		0.477951705456	3.77440182831
4.52	0.161823347211	0.384		0.593739748001	3.89908857274
4.62	0.231994539499	0.448		0.694764196873	3.95693010773
4.72	0.307535976171	0.515		0.755414247513	4.05025954848
4.82	0.390058726072	0.587		0.823437333107	4.08410404682
4.92	0.479025781155	0.663		0.880861759186	4.07315957107
5.02	0.571931004524	0.744		0.929052114487	4.05617855698
5.12	0.667163312435	0.828		0.952323257923	4.09373885064
5.22	0.767049849033	0.915		0.987203240395	4.03386648279
5.32	0.866757392883	1.007		0.995285153389	4.02370166725
5.42	0.968613028526	1.102		1.01676619053	4.04549725026
5.52	1.07297480106	1.2		1.03151226044	4.04282851262
5.62	1.17590451241	1.302		1.02929675579	4.10480058068
5.72	1.28116130829	1.407		1.04037392139	4.17171051131
5.82	1.38856613636	1.515		1.06164216995	4.20208398009
5.92	1.49632906914	1.626		1.07762885094	4.31658904104
6.02	1.60534501076	1.74		1.07936573029	4.42612756847
6.12	1.71704614162	1.857		1.10417878628	4.51836390581
6.22	1.83179032803	1.976		1.14565193653	4.60527825761
6.32	1.94832468033	2.098		1.15203237534	4.71832896593
6.42	2.06826019287	2.222		1.187479496	4.80323853467
6.52	2.1896276474	2.349		1.21367514133	4.8954798406
6.62	2.31296420097	2.478		1.22115421295	5.04561892827
6.72	2.44131302834	2.609		1.26900815964	5.11347576772
6.82	2.5718100071	2.742		1.29027628899	5.17206409547
6.92	2.7042760849	2.877		1.3228700161	5.27008009296
7.02	2.83942723274	3.014		1.34972119331	5.34347204183
7.12	2.97744250298	3.152		1.35133588314	5.39724716883
7.22	3.11760592461	3.292		1.39984357357	5.40635947597
7.32	3.26027536392	3.433		1.42669475079	5.45280726419
7.42	3.40598797798	3.576		1.42680001259	5.41785901888
7.52	3.55420660973	3.72		1.48039734364	5.3927163085
7.62	3.70421552658	3.865		1.49829804897	5.33975883882
7.72	3.85547733307	4.011		1.48120450974	5.28442397747
7.82	4.00870847702	4.158		1.53051948547	5.11635828986
7.92	4.16068649292	4.305		1.51798892021	5.21604123044
8.02	4.31534957886	4.454		1.5295445919	5.0002260537
8.12	4.46858072281	4.603		1.53051948547	4.93576547416
8.22	4.62395954132	4.752		1.53663408756	4.81953096337
8.32	4.77736949921	4.902		1.53230953217	4.74227193352
8.42	4.93131637573	5.051		1.53767979145	4.64256137008
8.52	5.08239936829	5.201		1.49409759045	4.57995411654
8.62	5.23276615143	5.351		1.50187814236	4.52258410244
8.72	5.38778734207	5.501		1.54842031002	4.3445385961
8.82	5.53904914856	5.651		1.49586975574	4.28042311824
8.92	5.69066905975	5.8		1.51440870762	4.17015190321
9.02	5.84049892426	5.949		1.49829804897	4.10631235644
9.12	5.98513746262	6.097		1.4180252552	4.1325735604
9.22	6.126912117	6.245		1.41595435143	4.18631760218
9.32	6.26349544525	6.392		1.35053646564	4.38116192098
9.42	6.39989948273	6.538		1.34876406193	4.70550136444
9.52	6.53505039215	6.683		1.33812999725	4.535891614
9.62	6.66107225418	6.827		1.24596738815	5.0330467263
9.72	6.78440904617	6.969		1.23157584667	5.44559527683
9.82	6.9057765007	7.111		1.19988620281	5.83740687458
9.92	7.02392196655	7.251		1.16975593567	6.36632709356
10.02	7.14367818832	7.389		1.19756436348	6.8121201921
10.12	7.24911403656	7.526		1.04391849041	7.65414533645
10.22	7.35795116425	7.66		1.07582116127	8.3568884014
10.32	7.47090530396	7.793		1.12954127789	8.93663603063
10.42	7.58833456039	7.924		1.15126788616	9.47929021378
10.52	7.71328210831	8.053		1.24768662453	9.8519480962
10.62	7.84521102905	8.18		1.31928992271	10.0962068933
10.72	7.98967075348	8.304		1.41451525688	10.045762602
10.82	8.13896369934	8.426		1.491137743	9.92102392089
10.92	8.29434299469	8.545		1.55200052261	9.6462335144
11.02	8.45419692993	8.662		1.56544363499	9.19497583148
11.12	8.61315631866	8.776		1.58959209919	8.72797862417
11.22	8.76907253265	8.887		1.55737066269	8.03721513087
11.32	8.91639614105	8.995		1.45687782764	7.82945255889
11.42	9.0599603653	9.1		1.43385505676	7.2702166515
11.52	9.1960067749	9.202		1.35867166519	6.76152074318
11.62	9.3220281601	9.3		1.24596738815	6.33219033443
11.72	9.43963623047	9.395		1.17429339886	5.89055665049
11.82	9.54650402069	9.486		1.05632507801	5.55715949272
11.92	9.64460086823	9.574		0.979174494743	5.24777102172
12.02	9.73589515686	9.658		0.902130007744	5.24777102172
12.12	9.8159122467	9.738		0.790471494198	4.95717520978
12.22	9.89252758026	9.814		0.764364778996	4.7836858444
12.32	9.96413040161	9.886		0.708943068981	4.51903637998
12.42	10.030005455	9.954		0.652227699757	4.28672662099
12.52	10.030005455	10.017		0.652227699757	4.06613447945
12.62	10.1531629562	10.076		0.637268900871	5.56111451575
12.72	10.1531629562	10.131		0.637268900871	3.21459753209
12.82	10.209192276	10.18		0.552975594997	4.62501338944
12.92	10.2664747238	10.225		0.572825968266	3.93825402525
13.02	10.319103241	10.265		0.519300758839	3.45497231136
13.12	10.3656454086	10.3		0.465421140194	3.07946679011
13.22	10.4044904709	10.33		0.388447612524	2.83057430555
13.32	10.4349222183	10.355		0.301300793886	2.6169711875
13.42	10.4601621628	10.375		0.252401441336	2.40902103437
13.52	10.4744825363	10.389		0.143206492066	2.34248696547
13.62	10.4875497818	10.397		0.129382103682	2.08539113446
13.72	10.496679306	10.4		0.0912941396236	1.82166276051
13.82	10.5070619583	10.4		0.10279674083	1.41484549223
13.92	10.5136852264	10.4		0.065577223897	1.0402017215
14.02	10.5240678787	10.4		0.103824712336	0.593210274676
14.12	10.5351667404	10.4		0.110985040665	0.127868873604
14.22	10.5260372162	10.4		-0.0903902426362	0.179594243122
14.32	10.5151176453	10.4		-0.107404880226	0.176597159405
14.42	10.5013341904	10.4		-0.136471539736	0.205666221732
14.52	10.4852237701	10.4		-0.159512192011	0.26595379978
14.62	10.4673233032	10.4		-0.179008126259	0.377073709901
14.72	10.4478111267	10.4		-0.191293001175	0.524248919455
14.82	10.4275827408	10.4		-0.202279180288	0.719593013755
14.92	10.4107561111	10.4		-0.168267652392	0.86552010619
15.02	10.3960771561	10.4		-0.145333334804	0.906343797785
15.12	10.3835468292	10.4		-0.125305682421	1.148946709
15.22	10.3762073517	10.4		-0.0733933374286	1.20586801905
15.32	10.3667201996	10.4		-0.0939349606633	1.35540585857
15.42	10.3588438034	10.4		-0.0787635743618	1.51411063636
15.52	10.3484611511	10.4		-0.103824712336	1.78252953636
15.62	10.3398685455	10.4		-0.0850731730461	1.98307629136
15.72	10.3507881165	10.4		0.10919495672	1.72025258111
15.82	10.3627815247	10.4		0.118747971952	1.5423866615
15.92	10.3738803864	10.4		0.110985040665	1.43156624768
16.02	10.3801460266	10.4		0.0626528412104	1.45016931145
16.12	10.3892755508	10.4		0.0886178836226	1.35376294015
16.22	10.395898819	10.4		0.0662330091	1.19497357307
16.32	10.4069976807	10.4		0.110985040665	1.31636210788
16.42	10.4168434143	10.4		0.0974796637893	0.927843698547
16.52	10.4247198105	10.4		0.0787635743618	0.821559664346
16.62	10.4351024628	10.4		0.103824712336	0.622509348956
16.72	10.4241828918	10.4		-0.108113802969	0.95186895703
16.82	10.4177389145	10.4		-0.0644429177046	1.03407253066
16.92	10.4107580185	10.4		-0.069813169539	1.1261713888
17.02	10.4027023315	10.4		-0.0805536583066	1.31808487496
17.12	10.3928565979	10.4		-0.0974796637893	1.21160219373
17.22	10.3855171204	10.4		-0.0726666674018	1.52862648718
17.32	10.3699436188	10.4		-0.155737057328	1.86017391923
17.42	10.379073143	10.4		0.0912941396236	1.53122501365
17.52	10.3882026672	10.4		0.0903902426362	1.33224600614
17.62	10.3980484009	10.4		0.0984544679523	1.10246370276
17.72	10.4078941345	10.4		0.0984544679523	1.20943666624
17.82	10.416844368	10.4		0.0886178836226	0.81443124981
17.92	10.4247207642	10.4		0.0787635743618	0.705228062414
18.02	10.4340295792	10.4		0.0930842235684	0.530931378087
18.12	10.4238262177	10.4		-0.101024389267	0.829063620139
18.22	10.4129066467	10.4		-0.10919495672	1.04508237906
18.32	10.4034194946	10.4		-0.0939349606633	1.27230532058
18.42	10.393573761	10.403		-0.0984544679523	1.14664939426
18.52	10.3851604462	10.411		-0.0841338261962	1.55931472742
18.62	10.3762102127	10.426		-0.0886178836226	1.89477087734
18.72	10.3663644791	10.445		-0.0984544679523	2.4424961448
18.82	10.3790740967	10.47		0.127095773816	2.48101476516
18.92	10.3950061798	10.5		0.157739818096	2.70907789432
19.02	10.4127283096	10.535		0.177218034863	3.05913205245
19.12	10.4329566956	10.575		0.202279180288	3.5044741736
19.22	10.4580183029	10.62		0.248130053282	3.95858212812
19.32	10.4913139343	10.669		0.331165015697	4.35691295765
19.42	10.529800415	10.723		0.384867459536	4.74538733094
19.52	10.5734786987	10.782		0.432455211878	5.20287604892
19.62	10.6218109131	10.845		0.47853654623	5.66137472202
19.72	10.6808834076	10.912		0.584877967834	5.99377562491
19.82	10.750875473	10.984		0.699921786785	6.19707728121
19.92	10.8260593414	11.059		0.751834154129	6.46130702654
20.02	10.9089403152	11.139		0.820601582527	6.61892216194
20.12	10.9971914291	11.222		0.882510006428	6.80636097288
20.22	11.0994052887	11.309		1.0221363306	6.71062468779
20.32	11.2062730789	11.399		1.05809748173	6.63082810951
20.42	11.3131408691	11.493		1.06867849827	6.62929739928
20.52	11.4187555313	11.59		1.05435788631	6.71978482968
20.62	11.5266971588	11.691		1.06873166561	6.77530742335
20.72	11.6328487396	11.794		1.0597281456	6.94041609051
20.82	11.7409696579	11.901		1.07050406933	7.04349099073
20.92	11.853386879	12.01		1.12238097191	7.11249069583
21.02	11.9636554718	12.123		1.10089993477	7.23819831312
21.12	12.0766096115	12.238		1.11658537388	7.38650124091
21.22	12.1969032288	12.355		1.20114457607	7.37957330841
21.32	12.3179130554	12.475		1.21009492874	7.41035498878
21.42	12.4410705566	12.597		1.21760964394	7.46171399495
21.52	12.5636911392	12.721		1.2244155407	7.55324004773
21.62	12.6864910126	12.848		1.2262057066	7.70474852148
21.72	12.8109016418	12.976		1.23001623154	7.83311933467
21.82	12.9365653992	13.106		1.25663709641	7.9535422006
21.92	13.0638399124	13.238		1.27274775505	8.09891974027
22.02	13.1911144257	13.371		1.27274775505	8.29382613312
22.12	13.3217906952	13.506		1.2920486927	8.4039162599
22.22	13.4567632675	13.643		1.33458530903	8.47876231696
22.32	13.5945997238	13.781		1.37836253643	8.54674379263
22.42	13.7324361801	13.919		1.37836253643	8.68006995668
22.52	13.8742103577	14.059		1.40370714664	8.67863448051
22.62	14.017416954	14.2		1.43027484417	8.72535176623
22.72	14.1609811783	14.342		1.43385505676	8.7725105448
22.82	14.3045454025	14.484		1.41965854168	8.84223924516
22.92	14.4525852203	14.627		1.47860705853	8.79786016032
23.02	14.5970449448	14.77		1.44280552864	8.89520182215
23.12	14.7422208786	14.914		1.43560957909	8.94136231997
23.22	14.8904399872	15.057		1.48039734364	8.92742404398
23.32	15.0365104675	15.201		1.44447147846	8.91657581979
23.42	15.1866979599	15.345		1.50008809566	8.85005561891
23.52	15.3325891495	15.489		1.44269919395	8.89042252851
23.62	15.478302002	15.633		1.44269919395	8.93236688783
23.72	15.6256256104	15.776		1.47323691845	8.69558534952
23.82	15.7697267532	15.919		1.42497563362	8.78187740729
23.92	15.9150810242	16.061		1.43738210201	8.82070883328
24.02	16.0581092834	16.203		1.42848479748	8.83818297498
24.12	16.2063274384	16.344		1.48039734364	8.84604633874
24.22	16.3554420471	16.483		1.47460150719	8.56284510243
24.32	16.5056304932	16.622		1.50008809566	8.30188929609
24.42	16.6475830078	16.76		1.40547955036	8.28829643324
24.52	16.7909679413	16.896		1.43385505676	8.17240514496
24.62	16.9318466187	17.031		1.40879380703	8.03938206523
24.72	17.0686092377	17.165		1.35408127308	7.97069142935
24.82	17.2087726593	17.296		1.39984357357	7.77162364321
24.92	17.3398075104	17.427		1.31033945084	7.73302263944
25.02	17.4720935822	17.555		1.30799973011	7.63537693775
25.12	17.5965042114	17.681		1.24231624603	7.63172937199
25.22	17.7264633179	17.805		1.29780888557	7.44754846739
25.32	17.8487262726	17.928		1.21052014828	7.38788806033
25.42	17.9708099365	18.047		1.2208353281	7.31536887715
25.52	18.0957584381	18.165		1.24947667122	7.05582449472
25.62	18.2167682648	18.279		1.1981137991	6.90564727262
25.72	18.334197998	18.392		1.17250323296	6.74839552268
25.82	18.4476890564	18.501		1.12367463112	6.63639873521
25.92	18.5579586029	18.608		1.10089993477	6.50847218084
26.02	18.6630363464	18.711		1.05077767372	6.50847218084
26.12	18.7654285431	18.811		1.01201617718	6.45034698138
26.22	18.865852356	18.909		1.00244545937	6.34743539162
26.32	18.9623374939	19.002		0.96485376358	6.19099867623
26.42	19.0600757599	19.093		0.965934872627	6.1225079043
26.52	19.0600757599	19.18		0.965934872627	5.86099230694
26.62	19.1485061646	19.263		0.884300112724	8.07949578812
26.72	19.2367572784	19.342		0.873772263527	7.42539685465
26.82	19.3368225098	19.418		0.99074780941	6.57299208459
26.92	19.4401092529	19.489		1.03287696838	6.07174293807
27.02	19.539100647	19.556		0.970504879951	5.47488132213
27.12	19.6325435638	19.619		0.934422433376	4.93175284496
27.22	19.7193622589	19.678		0.857821166515	4.46627803023
27.32	19.7920398712	19.732		0.717804789543	4.1718916136
27.42	19.8579139709	19.781		0.658749878407	3.83160022612
27.52	19.9164505005	19.826		0.585356533527	3.49900685175
27.62	19.9651412964	19.866		0.480308890343	3.23653208329
27.72	20.0070285797	19.901		0.417088955641	2.96516093748
27.82	20.0421142578	19.931		0.350855916739	2.70439442187
27.92	20.0691452026	19.955		0.267626017332	2.49153923984
28.02	20.0915203094	19.975		0.223760157824	2.19921190793
28.12	20.1054821014	19.989		0.139626339078	2.06382010857
28.22	20.1190872192	19.997		0.136046171188	1.72001504886
28.32	20.1296482086	20.0		0.105614796281	1.32694102198
28.42	20.1366291046	20.0		0.0691219493747	0.934526459893
28.52	20.141462326	20.0		0.048332195729	0.555011906952
28.62	20.1496963501	20.0		0.0823437348008	0.0460381081285
28.72	20.1552448273	20.0		0.0549430847168	0.0460381081285
28.82	20.1568565369	20.0		0.0161107294261	-0.669670295604
28.92	20.1604366302	20.0		0.0358016230166	-1.05442538302
29.02	20.1495170593	20.0		-0.106341451406	-1.11141892236
29.12	20.1187267303	20.0		-0.307893961668	-0.689093765062
29.22	20.0988559723	20.0		-0.198699012399	-0.667779194278
29.32	20.0730781555	20.0		-0.253447115421	-0.453032137425
29.42	20.0571460724	20.0		-0.159317225218	-0.485068461841
29.52	20.0283260345	20.0		-0.285349577665	-0.0942585578285
29.62	19.9961051941	20.0		-0.319024384022	0.268586648977
29.72	19.9889450073	20.0		-0.0716032460332	0.22773174204
29.82	19.9694328308	20.0		-0.193186998367	0.551400283918
29.92	19.9547538757	20.0		-0.144996598363	0.749559627763
30.02	19.9456253052	20.0		-0.0912941396236	0.883339082493
30.12	19.9361381531	20.0		-0.0939349606633	1.11295908712
30.22	19.9228916168	20.0		-0.1324660182	1.45869783921
30.32	19.9110774994	20.0		-0.118145368993	1.79404502764
30.42	19.9019489288	20.0		-0.0903902426362	2.07882951244
30.52	19.8899555206	20.0		-0.118747971952	2.4827442806
30.62	19.9003372192	20.0		0.103824712336	2.32897842627
30.72	19.9087505341	20.0		0.0833008140326	2.32369104182
30.82	19.9203853607	20.0		0.116355285048	2.30446521882
30.92	19.9271869659	20.0		0.0673495829105	2.40474659847
31.02	19.9377479553	20.0		0.105614796281	2.37578821931
31.12	19.9454460144	20.0		0.076973490417	2.44951394869
31.22	19.9570808411	20.0		0.115203246474	2.36036227691
31.32	19.9445495605	20.0		-0.125305682421	2.89640202461
31.42	19.936674118	20.0		-0.0787635743618	3.20354291107
31.52	19.9304084778	20.0		-0.0620325133204	3.46159305998
31.62	19.9298706055	20.0		-0.00537024345249	3.54123687699
31.72	19.9296913147	20.0		-0.00179008126725	3.66331659465
31.82	19.9296913147	20.0		0.0	3.80449246759
31.92	19.9296913147	20.0		0.0	3.95426161042
32.02	19.9296913147	20.0		0.0	4.10789772469
32.12	19.9296913147	20.0		0.0	4.26327397611
32.22	19.9296913147	20.0		0.0	4.41943328925
32.32	19.9296913147	20.0		0.0	4.57594498016
32.42	19.9296913147	20.0		0.0	4.73261524107
32.52	19.9296913147	20.0		0.0	4.88935685848
32.62	19.917339325	20.0		-0.122292682528	5.38500483632
32.72	19.9363136292	20.0		0.189748615026	4.98711842634
32.82	19.9708614349	20.0		0.345485657454	4.30765754185
32.92	20.0184783936	20.0		0.469674736261	3.42606114383
33.02	20.0675258636	20.0		0.490482270718	2.52777301473
33.12	20.1047592163	20.0		0.372336894274	1.95184160663
33.22	20.1312522888	20.0		0.262308895588	1.53422022298
33.32	20.1439609528	20.0		0.125305682421	1.30183685034
33.42	20.1547012329	19.998		0.107404880226	0.961022832654
33.52	20.1631145477	19.992		0.0833008140326	0.548867774694
33.62	20.1731395721	19.981		0.100244559348	0.548867774694
33.72	20.1751079559	19.967		0.0194959361106	0.548867774694
33.82	20.1801204681	19.949		0.0501222796738	-1.34345015153
33.92	20.1588191986	19.927		-0.213019654155	-1.58930281819
34.02	20.1339378357	19.901		-0.242187470198	-1.93304851818
34.12	20.1029701233	19.871		-0.309684097767	-2.26501558318
34.22	20.064125061	19.837		-0.386657565832	-2.51631576243
34.32	20.011138916	19.8		-0.522845447063	-2.52968034309
34.42	19.9475917816	19.759		-0.635478854179	-2.40540765439
34.52	19.8779582977	19.715		-0.694551587105	-2.23168319448
34.62	19.8031330109	19.667		-0.733582317829	-2.00043668751
34.72	19.7268753052	19.615		-0.762574613094	-1.81837750938
34.82	19.6454257965	19.56		-0.796761631966	-1.51922837922
34.92	19.5643348694	19.501		-0.81090682745	-1.16549127065
35.02	19.4868240356	19.439		-0.775105178356	-1.16730557179
35.12	19.4064502716	19.374		-0.79578858614	-0.901033757307
35.22	19.3305511475	19.306		-0.757204353809	-0.812976690788
35.32	19.259305954	19.234		-0.712452352047	-0.791418510855
35.42	19.1927146912	19.159		-0.659317016602	-0.950341829884
35.52	19.1223640442	19.081		-0.701711833477	-0.970426823448
35.62	19.0536251068	19.0		-0.687391161919	-1.12442857055
35.72	18.9861392975	18.916		-0.668178796768	-1.32402710675
35.82	18.9233074188	18.829		-0.626528441906	-1.53363369804
35.92	18.8604755402	18.739		-0.628318548203	-2.19060391412
36.02	18.7922725677	18.646		-0.673495829105	-2.55444326135
36.12	18.7224597931	18.55		-0.689447164536	-2.99732621761
36.22	18.647813797	18.452		-0.739073038101	-3.46051629792
36.32	18.564037323	18.35		-0.837758004665	-3.76894183407
36.42	18.4747123718	18.246		-0.891460478306	-4.13915407533
36.52	18.3759002686	18.14		-0.978341460228	-4.3621795839
36.62	18.2702846527	18.031		-1.05435788631	-4.53504481275
36.72	18.1589412689	17.919		-1.11343050003	-4.72085966574
36.82	18.0424060822	17.805		-1.15380465984	-4.86689859958
36.92	17.921037674	17.688		-1.21188497543	-4.98933761981
37.02	17.7932262421	17.569		-1.27811801434	-5.02332617892
37.12	17.6612968445	17.448		-1.30622768402	-5.02195053051
37.22	17.5239982605	17.324		-1.3576259613	-4.94550573873
37.32	17.3820457458	17.198		-1.40370714664	-4.81602708243
37.42	17.2349014282	17.07		-1.46965670586	-4.59736793709
37.52	17.0907993317	16.94		-1.44101548195	-4.49563557169
37.62	16.9431171417	16.807		-1.4621950388	-4.20881575726
37.72	16.7941818237	16.673		-1.4875575304	-4.10902884077
37.82	16.6443519592	16.536		-1.49829804897	-3.85893897835
37.92	16.4907627106	16.398		-1.51891040802	-3.57409454026
38.02	16.3409328461	16.258		-1.49650800228	-3.35816754311
38.12	16.1893138885	16.116		-1.51440870762	-3.0883443944
38.22	16.0319652557	15.972		-1.55613005161	-2.70128222748
38.32	15.8796291351	15.826		-1.50650382042	-2.47804700237
38.42	15.7314100266	15.679		-1.46751213074	-2.32629540106
38.52	15.5797901154	15.529		-1.51440870762	-2.08929193048
38.62	15.4251270294	15.379		-1.53131699562	-1.80046111872
38.72	15.2713594437	15.227		-1.52068281174	-1.52574650342
38.82	15.1204557419	15.073		-1.50903844833	-1.36526117654
38.92	14.9743852615	14.918		-1.4589163065	-1.35222552944
39.02	14.828494072	14.761		-1.44269919395	-1.31874673825
39.12	14.6886882782	14.603		-1.39805352688	-1.50423053221
39.22	14.5488824844	14.444		-1.39626336098	-1.6526422395
39.32	14.4144477844	14.283		-1.32926809788	-1.96295100777
39.42	14.2830562592	14.121		-1.31391978264	-2.4268974535
