%1-Time(seg)	2-Pos_Encoder	3-x_ref	4-Velo_Encoder(m/s)	5-Torque(N.m)
3.84	0.0	0.0		0.0	0.0
3.94	0.0	0.003		0.0	0.0
4.04	0.0	0.011		0.0	0.0
4.14	0.0	0.026		0.0	0.28673975
4.24	0.0	0.045		0.0	0.6274896375
4.34	0.0	0.07		0.0	1.04516808687
4.44	0.000895040633623	0.1		0.00886178854853	1.58108363909
4.54	0.0137836271897	0.135		0.128885835409	1.92964688759
4.64	0.04475203529	0.175		0.309684097767	1.99869009942
4.74	0.0846708416939	0.22		0.395235747099	2.07051454474
4.84	0.146607652307	0.27		0.619368195534	1.77057229513
4.94	0.21176661551	0.325		0.65158957243	1.63255678281
5.04	0.278894662857	0.384		0.664634048939	1.59206755226
5.14	0.346380710602	0.447		0.674860596657	1.63235639852
5.24	0.413329750299	0.515		0.661089420319	1.73328337933
5.34	0.485649049282	0.587		0.716032505035	1.7603772707
5.44	0.561906516552	0.663		0.762574613094	1.79168477182
5.54	0.635478854179	0.743		0.728438913822	1.98489989732
5.64	0.71066224575	0.827		0.751834154129	2.15801795379
5.74	0.791573941708	0.915		0.809116721153	2.28342182921
5.84	0.879108905792	1.006		0.866682887077	2.35644707314
5.94	0.971477091312	1.101		0.92189180851	2.39006193291
6.04	1.06724643707	1.2		0.957693517208	2.43977261981
6.14	1.16946005821	1.302		1.00033950806	2.44335992892
6.24	1.27417981625	1.407		1.04540741444	2.45755821801
6.34	1.38015258312	1.515		1.0597281456	2.52496994811
6.44	1.48809444904	1.626		1.05649900436	2.60610047665
6.54	1.59872150421	1.74		1.10627019405	2.60610047665
6.64	1.71131765842	1.856		1.11481297016	2.67587321449
6.74	1.71131765842	1.976		1.11481297016	2.79266944652
6.84	1.82677793503	2.098		1.14317071438	5.97396325093
6.94	1.97356462479	2.222		1.46607649326	4.83368221292
7.04	2.16098618507	2.349		1.85388612747	3.26936824581
7.14	2.34536457062	2.478		1.82375609875	2.15494546062
7.24	2.52294063568	2.609		1.77397048473	1.54983520728
7.34	2.67527651787	2.742		1.50827634335	1.46358959327
7.44	2.79789710045	2.877		1.2262057066	1.97229581697
7.54	2.90261697769	3.013		1.04540741444	2.73892661764
7.64	3.01216983795	3.152		1.08291053772	3.20368947794
7.74	3.12655591965	3.291		1.14207184315	3.60870151507
7.84	3.24917650223	3.433		1.2122926712	3.82661893178
7.94	3.39041399956	3.575		1.3966178894	3.7044617693
8.04	3.54507708549	3.719		1.54663026333	3.34606154619
8.14	3.70314121246	3.864		1.56321942806	3.08470619578
8.24	3.85905742645	4.01		1.55737066269	2.8151697881
8.34	4.00172710419	4.157		1.42490470409	2.97437840465
8.44	4.15084075928	4.305		1.47460150719	3.04602228209
8.54	4.29368925095	4.453		1.42669475079	3.36500177694
8.64	4.44119215012	4.602		1.47323691845	3.35531804962
8.74	4.59388589859	4.751		1.51004874706	3.03540612233
8.84	4.73583936691	4.901		1.41953444481	3.49282950505
8.94	4.88119411469	5.051		1.45175588131	3.58451752727
9.04	5.03567790985	5.201		1.54305005074	3.43242463727
9.14	5.18944597244	5.351		1.53588962555	3.39191733677
9.24	5.34661531448	5.501		1.55613005161	3.12825980155
9.34	5.50056219101	5.65		1.53767979145	3.2199889107
9.44	5.65003395081	5.8		1.49292767048	3.26126700981
9.54	5.80075883865	5.949		1.47769463062	3.27984215442
9.64	5.95166254044	6.097		1.50903844833	3.28820096949
9.74	6.10346126556	6.245		1.51619875431	3.29196243627
9.84	6.25329113007	6.391		1.48169112206	3.29365509632
9.94	6.40133094788	6.537		1.47860705853	3.29441679334
10.04	6.54901266098	6.682		1.47502696514	2.98195255701
10.14	6.69275617599	6.826		1.42143070698	3.06300190065
10.24	6.83488845825	6.969		1.41953444481	3.35513060529
10.34	6.98328638077	7.11		1.46928441525	2.92880327238
10.44	7.12541866302	7.25		1.41953444481	2.93907822257
10.54	7.2596745491	7.388		1.32926809788	3.33376195016
10.64	7.40288114548	7.525		1.41788613796	2.85739212757
10.74	7.54877281189	7.66		1.45712602139	2.65290920741
10.84	7.67873287201	7.793		1.29959893227	2.81944139333
10.94	7.80797672272	7.924		1.27786970139	2.887585627
11.04	7.94205379486	8.053		1.33898067474	2.75144378215
11.14	8.06968688965	8.18		1.27453780174	2.74666495197
11.24	8.19409751892	8.304		1.23001623154	2.78424097839
11.34	8.31582260132	8.426		1.21725523472	2.78344294027
11.44	8.43826389313	8.545		1.2122926712	2.73323732312
11.54	8.55963134766	8.662		1.21367514133	2.61765904541
11.64	8.67867183685	8.776		1.1886138916	2.54762807043
11.74	8.79502677917	8.887		1.15026009083	2.47809813169
11.84	8.90762329102	8.995		1.1259611845	2.40632965926
11.94	9.02039813995	9.1		1.1259611845	2.27895534667
12.04	9.12672901154	9.201		1.05100810528	2.208827406
12.14	9.23037433624	9.3		1.03645706177	2.1269338327
12.24	9.32685947418	9.395		0.963063716888	2.14155072472
12.34	9.42352390289	9.486		0.955300807953	2.02766732612
12.44	9.51535511017	9.574		0.916521608829	1.97575429675
12.54	9.60557556152	9.658		0.902200937271	1.83846368354
12.64	9.6879196167	9.738		0.823437333107	1.84198715759
12.74	9.77115821838	9.814		0.832387804985	1.69334847092
12.84	9.84866905212	9.886		0.767430841923	1.58626431191
12.94	9.92277812958	9.954		0.739303529263	1.47788444036
13.04	9.99438095093	10.017		0.714242398739	1.34039024816
13.14	10.0604352951	10.076		0.652227699757	1.20362986167
13.24	10.123087883	10.13		0.624738335609	1.03743643775
13.34	10.1782226562	10.18		0.551345050335	0.948803146989
13.44	10.231388092	10.225		0.526390254498	0.789111666145
13.54	10.2743501663	10.265		0.429619520903	0.759146749765
13.64	10.3176698685	10.3		0.433199673891	0.545963037394
13.74	10.3506069183	10.33		0.322916597128	0.506993866827
13.84	10.3654642105	10.355		0.14857673645	0.808639240072
13.94	10.3694019318	10.375		0.0389918722212	1.16817190803
14.04	10.3810377121	10.389		0.116355285048	1.30949885861
14.14	10.3903465271	10.397		0.0930842235684	1.12765848638
14.24	10.3975067139	10.4		0.0708943083882	1.04583031887
14.34	10.4073524475	10.4		0.0984544679523	1.00900764349
14.44	10.4186296463	10.4		0.112775117159	0.497159689571
14.54	10.4229259491	10.4		0.0425365865231	0.472244860307
14.64	10.4229259491	10.4		0.0	0.502822187138
14.74	10.4229259491	10.4		0.0	0.488245984212
14.84	10.4229259491	10.4		0.0	0.453350692895
14.94	10.4229259491	10.4		0.0	0.409311811803
15.04	10.4229259491	10.4		0.0	0.361158315311
15.14	10.4229259491	10.4		0.0	0.31115324189
15.24	10.4229259491	10.4		0.0	0.260314958851
15.34	10.4229259491	10.4		0.0	0.209101731483
15.44	10.4229259491	10.4		0.0	0.157719779167
15.54	10.4229259491	10.4		0.0	0.106261900625
15.64	10.4229259491	10.4		0.0	0.0547698552814
15.74	10.4229259491	10.4		0.0	0.00326243487663
15.84	10.4229259491	10.4		0.0	0.00326243487663
15.94	10.4229259491	10.4		0.0	0.00326243487663
16.04	10.4229259491	10.4		0.0	-0.151288210622
16.14	10.4281167984	10.4		0.051912356168	-0.33314394478
16.24	10.4420795441	10.4		0.138243898749	-0.726760275151
16.34	10.4673194885	10.4		0.252401441336	-1.36187537382
16.44	10.427400589	10.4		-0.397398024797	-0.249249918218
16.54	10.3887348175	10.4		-0.382829248905	0.507473036802
16.64	10.3477420807	10.4		-0.409928590059	1.26412011656
16.74	10.3373594284	10.4		-0.10279674083	1.23663380245
16.84	10.3208904266	10.4		-0.162897393107	1.5261132111
16.94	10.3411188126	10.4		0.202279180288	0.951861944997
17.04	10.3658218384	10.4		0.244585365057	0.465080625249
17.14	10.3708343506	10.4		0.0501222796738	0.595862031362
17.24	10.37155056	10.4		0.00716032506898	0.752030664113
17.34	10.3740568161	10.4		0.0248130038381	0.822199298851
17.44	10.3821125031	10.4		0.0805536583066	0.712331684483
17.54	10.3912420273	10.4		0.0912941396236	0.356106758017
17.64	10.3969707489	10.4		0.0567154437304	0.511368041108
17.74	10.3969707489	10.4		0.0	0.581235618499
17.84	10.3969707489	10.4		0.0	0.612676028324
17.94	10.3969707489	10.4		0.0	0.626824212746
18.04	10.3969707489	10.4		0.0	0.633190895736
18.14	10.3969707489	10.4		0.0	0.636055903081
18.24	10.3969707489	10.4		0.0	0.637345156386
18.34	10.3969707489	10.4		0.0	0.637925320374
18.44	10.3969707489	10.4		0.0	0.638186394168
18.54	10.3969707489	10.4		0.0	0.638303877376
18.64	10.3969707489	10.4		0.0	0.638356744819
18.74	10.3969707489	10.4		0.0	0.638380535169
18.84	10.3969707489	10.4		0.0	0.638391240826
18.94	10.3969707489	10.403		0.0	0.638396058372
19.04	10.3969707489	10.411		0.0	0.638398226267
19.14	10.3969707489	10.426		0.0	1.00334070182
19.24	10.398223877	10.445		0.0125305699185	1.30431681582
19.34	10.4118280411	10.47		0.134699165821	1.35915081712
19.44	10.4288339615	10.5		0.170057713985	1.5453638677
19.54	10.4449443817	10.535		0.157948344946	1.90436324047
19.64	10.4793138504	10.575		0.343695580959	1.91430270821
19.74	10.523349762	10.62		0.440359979868	1.86596721869
19.84	10.5639848709	10.669		0.400552839041	2.08267424841
19.94	10.6289644241	10.723		0.649799466133	1.76198341179
20.04	10.7046852112	10.782		0.757204353809	1.3739730353
20.14	10.766084671	10.845		0.60791862011	1.55509736589
20.24	10.8332128525	10.912		0.664634048939	1.58710881465
20.34	10.9010572433	10.984		0.676650702953	1.66035571659
20.44	10.9717655182	11.059		0.698308944702	1.75046732247
20.54	11.0428314209	11.138		0.710662305355	1.89253929511
20.64	11.113360405	11.222		0.70529204607	2.1406639328
20.74	11.1926612854	11.309		0.793005943298	2.22960776976
20.84	11.2773323059	11.399		0.846708416939	2.31343724639
20.94	11.3671941757	11.493		0.889723539352	2.33799076088
21.04	11.4600992203	11.591		0.91808116436	2.41453109239
21.14	11.5574798584	11.691		0.972014188766	2.49816624158
21.24	11.6602306366	11.794		1.01556098461	2.48195705871
21.34	11.7651290894	11.901		1.03860151768	2.51331417642
21.44	11.8718175888	12.01		1.06509840488	2.51331417642
21.54	11.8718175888	12.122		1.06509840488	2.59821537939
21.64	11.9797592163	12.237		1.06695914268	5.61774817072
21.74	12.1140155792	12.355		1.32926809788	4.67517292683
21.84	12.285326004	12.474		1.71131777763	3.35407956707
21.94	12.4629020691	12.596		1.75817871094	2.23701605518
22.04	12.6250839233	12.721		1.60398352146	1.73954322483
22.14	12.77455616	12.847		1.4781460762	1.52952120117
22.24	12.8986091614	12.975		1.23873639107	1.85889904053
22.34	13.001001358	13.106		1.0221363306	2.58574106824
22.44	13.103931427	13.237		1.01733326912	3.10272398071
22.54	13.2168855667	13.371		1.12954127789	3.40089879132
22.64	13.3353891373	13.506		1.18324375153	3.62616845609
22.74	13.4701824188	13.642		1.33281302452	3.49139180524
22.84	13.6166114807	13.78		1.46249628067	3.18835456236
22.94	13.7642936707	13.919		1.47502696514	3.04102630306
23.04	13.9067840576	14.059		1.4090243578	3.04795283638
23.14	14.0492744446	14.199		1.4090243578	2.82317177637
23.24	14.1863946915	14.341		1.3576259613	3.27126954937
23.34	14.3290643692	14.483		1.42490470409	3.23495604721
23.44	14.4760303497	14.626		1.46965670586	2.93812322125
23.54	14.6129713058	14.769		1.3558536768	3.35379769956
23.64	14.7565355301	14.913		1.43385505676	3.3028937148
23.74	14.8992052078	15.057		1.42490470409	3.36443667166
23.84	15.0468864441	15.201		1.46042275429	3.00937500225
23.94	15.1890192032	15.345		1.42132461071	3.40784175101
24.04	15.3358058929	15.489		1.46786665916	3.07875378796
24.14	15.4838457108	15.632		1.46396744251	3.14103920458
24.24	15.6275892258	15.776		1.43743526936	3.16906764206
24.34	15.7767028809	15.918		1.4893475771	3.18168043893
24.44	15.9256372452	16.061		1.45838975906	3.18735619752
24.54	16.0733184814	16.202		1.47502696514	2.87710328888
24.64	16.2158088684	16.343		1.4090243578	2.88094598
24.74	16.3545398712	16.483		1.37357711792	2.952624191
24.84	16.4950618744	16.622		1.40342366695	2.93503288595
24.94	16.6330776215	16.759		1.36471521854	2.93840004868
25.04	16.7693023682	16.896		1.36046171188	3.1955717719
25.14	16.9094657898	17.031		1.40163362026	2.77958104736
25.24	17.0453338623	17.164		1.34521949291	2.77820822131
25.34	17.1699237823	17.296		1.24410653114	3.14281519959
25.44	17.311340332	17.426		1.41237413883	2.67044208982
25.54	17.4389724731	17.554		1.25130188465	2.75449744042
25.64	17.5632038116	17.681		1.24052631855	3.08011809819
25.74	17.6922683716	17.805		1.27786970139	2.71200139418
25.84	17.8211536407	17.927		1.28706848621	2.59530437738
25.94	17.9400157928	18.047		1.1886138916	2.68893671982
26.04	18.0631732941	18.164		1.21938204765	2.58425977392
26.14	18.178276062	18.279		1.15102231503	2.62217139826
26.24	18.296421051	18.391		1.18145370483	2.50871937922
26.34	18.4106273651	18.501		1.13076400757	2.41111397065
26.44	18.5196437836	18.607		1.09015953541	2.42121253679
26.54	18.6288394928	18.711		1.0919495821	2.30661589156
26.64	18.7376766205	18.811		1.06527376175	2.1502009012
26.74	18.8406066895	18.908		1.02929675579	2.05600465554
26.84	18.9376296997	19.002		0.968433916569	2.02925009499
26.94	19.0310726166	19.093		0.916100382805	2.00631779275
27.04	19.1227245331	19.179		0.914731502533	1.91667175674
27.14	19.2111549377	19.263		0.875544726849	1.80476779053
27.24	19.2958259583	19.342		0.846708416939	1.72398225574
27.34	19.3776321411	19.417		0.81627702713	1.58630226508
27.44	19.4528160095	19.489		0.742617845535	1.53258801929
27.54	19.5244197845	19.556		0.716032505035	1.49013185868
27.64	19.5928001404	19.619		0.683811068535	1.35824083641
27.74	19.6568851471	19.677		0.634504079819	1.26230112638
27.84	19.717748642	19.732		0.608627617359	1.11164175687
27.94	19.7746734619	19.781		0.563609778881	0.993792290592
28.04	19.8274803162	19.826		0.521073162556	0.844644780767
28.14	19.8734855652	19.866		0.455495893955	0.747382901345
28.24	19.9153728485	19.901		0.414731681347	0.611107805605
28.34	19.9490261078	19.931		0.334745168686	0.550545762522
28.44	19.960483551	19.955		0.113430887461	0.941903343135
28.54	19.9619159698	19.975		0.0141788609326	1.50514275441
28.64	19.9688968658	19.989		0.069813169539	1.25019423948
28.74	19.9787425995	19.997		0.0984544679523	1.39613990777
28.84	19.9896621704	20.0		0.106341451406	1.0381504585
28.94	19.9986133575	20.0		0.0895040631294	1.05236770632
29.04	20.0129337311	20.0		0.143206492066	0.719891217845
29.14	20.0234947205	20.0		0.104569092393	0.52149454803
29.24	20.0254631042	20.0		0.0196908935905	0.527058046614
29.34	20.025642395	20.0		0.00179008126725	0.507756870976
29.44	20.025642395	20.0		0.0	0.484570591939
29.54	20.025642395	20.0		0.0	0.442104766373
29.64	20.025642395	20.0		0.0	0.390963144868
29.74	20.025642395	20.0		0.0	0.33591741519
29.84	20.025642395	20.0		0.0	0.279114836836
29.94	20.025642395	20.0		0.0	0.221521676576
30.04	20.025642395	20.0		0.0	0.163572754459
30.14	20.025642395	20.0		0.0	0.105463739507
30.24	20.025642395	20.0		0.0	0.047282682778
30.34	20.025642395	20.0		0.0	0.047282682778
30.44	20.025642395	20.0		0.0	0.047282682778
30.54	20.025642395	20.0		0.0	-0.127393485532
30.64	20.030834198	20.0		0.051912356168	-0.315967318489
30.74	20.0530319214	20.0		0.221970081329	-0.92484079332
30.84	20.0313720703	20.0		-0.212682902813	-0.304962856994
30.94	20.0057735443	20.0		-0.255981624126	0.358187464353
31.04	19.9744472504	20.0		-0.310162574053	0.790884858959
31.14	19.9583358765	20.0		-0.161107316613	0.978894186531
31.24	19.946521759	20.0		-0.118145368993	1.12148213394
31.34	19.9381084442	20.0		-0.0833008140326	1.29270421027
31.44	19.9594097137	20.0		0.213019654155	0.740944644623
31.54	19.9676437378	20.0		0.0823437348008	0.67671584008
31.64	19.9730148315	20.0		0.0531707257032	0.714681878036
31.74	19.9733734131	20.0		0.00354471523315	0.852686845116
31.84	19.9805335999	20.0		0.0716032460332	0.739515080302
31.94	19.9869785309	20.0		0.0638048797846	0.695842286136
32.04	19.9893054962	20.0		0.0232710558921	0.745258528761
32.14	19.9898433685	20.0		0.00531707331538	0.790043087943
32.24	19.9943180084	20.0		0.0447520315647	0.579374889574
32.34	19.995929718	20.0		0.0161107294261	0.659886700308
32.44	19.995929718	20.0		0.0	0.696117015139
32.54	19.995929718	20.0		0.0	0.712420656812
32.64	19.9962882996	20.0		0.00358016253449	0.719757295566
32.74	20.0013008118	20.0		0.0496260076761	0.723058783005
32.84	20.0064926147	20.0		0.051912356168	0.724544452352
32.94	20.011505127	20.0		0.0501222796738	0.412406003558
33.04	20.0132961273	20.0		0.0177235770971	0.441467451601
33.14	20.0132961273	20.0		0.0	0.456060353221
33.24	20.0132961273	20.0		0.0	0.446611158949
33.34	20.0132961273	20.0		0.0	0.426343021527
33.44	20.0132961273	20.0		0.0	0.401206359687
33.54	20.0132961273	20.0		0.0	0.373878861859
33.64	20.0132961273	20.0		0.0	0.345565487837
33.74	20.0132961273	20.0		0.0	0.316808469526
33.84	20.0132961273	20.0		0.0	0.287851811287
33.94	20.0132961273	19.999		0.0	0.258805315079
34.04	20.0132961273	19.997		0.0	0.203651141786
34.14	20.0132961273	19.994		0.0	0.126980513803
34.24	20.0132961273	19.989		0.0	0.0296274812115
34.34	20.0132961273	19.983		0.0	0.0296274812115
34.44	20.0132961273	19.976		0.0	0.0296274812115
34.54	20.0132961273	19.968		0.0	-0.4347353189
34.64	20.0183086395	19.958		0.0501222796738	-0.807217143505
34.74	20.0000495911	19.947		-0.180780485272	-0.599989714577
34.84	19.9821491241	19.935		-0.179008126259	-0.51626062156
34.94	19.9429454803	19.921		-0.390237748623	0.267932470298
35.04	19.9275512695	19.906		-0.153946980834	0.00722561163412
35.14	19.9230766296	19.89		-0.0447520315647	0.00722561163412
35.24	19.9227180481	19.873		-0.00354471523315	0.00722561163412
35.34	19.9187793732	19.855		-0.0393817871809	-1.14327789676
35.44	19.8994464874	19.835		-0.193328782916	-1.10755655354
35.54	19.8570213318	19.814		-0.420048773289	-0.607272949095
35.64	19.7990226746	19.793		-0.579986393452	0.169551422907
35.74	19.7548084259	19.769		-0.442150056362	0.488492890308
35.84	19.7222290039	19.745		-0.31765165925	0.510219050639
35.94	19.7123832703	19.72		-0.0984544679523	0.0551770727874
36.04	19.7114887238	19.693		-0.00895040575415	0.0551770727874
36.14	19.7105941772	19.665		-0.00886178854853	0.0551770727874
36.24	19.7034339905	19.636		-0.0716032460332	-1.17345808237
36.34	19.683385849	19.606		-0.198504030704	-1.36053338707
36.44	19.6375598907	19.575		-0.458260804415	-0.953831274179
36.54	19.5834999084	19.543		-0.538814425468	-0.953831274179
36.64	19.5219211578	19.51		-0.609691023827	-0.239056073381
36.74	19.5219211578	19.475		-0.609691023827	0.0690050169787
36.84	19.4805698395	19.44		-0.41350877285	0.0690050169787
36.94	19.4417247772	19.403		-0.388447612524	-0.651888796562
37.04	19.41755867	19.366		-0.239268273115	-1.02931870845
37.14	19.3869476318	19.327		-0.306103885174	-1.1110769188
37.24	19.3445224762	19.287		-0.424249261618	-0.990350863462
37.34	19.2902832031	19.247		-0.535252034664	-0.541583388558
37.44	19.2267360687	19.205		-0.635478854179	-0.133855524851
37.54	19.1665897369	19.162		-0.601467251778	0.192847513817
37.64	19.1177196503	19.118		-0.483853638172	0.227520881218
37.74	19.085319519	19.074		-0.324004709721	0.227520881218
37.84	19.0758323669	19.028		-0.0939349606633	-0.866267159053
37.94	19.0690307617	18.981		-0.0680230855942	-1.70374547157
38.04	19.0504131317	18.933		-0.186168447137	-2.14222446221
38.14	18.9904460907	18.885		-0.593739748001	-1.62086600799
38.24	18.9029102325	18.835		-0.866682887077	-0.650230953597
38.34	18.8184185028	18.785		-0.844918370247	-0.0069861791188
38.44	18.7428779602	18.733		-0.747934877872	0.341505469397
38.54	18.6750335693	18.681		-0.671723484993	0.528865461228
38.64	18.6386947632	18.628		-0.363386511803	0.528865461228
38.74	18.6258068085	18.573		-0.127609759569	-1.0193366441
38.84	18.6231212616	18.518		-0.0268512200564	-2.03926398985
38.94	18.5939426422	18.462		-0.287121921778	-2.36101729543
39.04	18.5318260193	18.405		-0.621158123016	-1.98722228294
39.14	18.4398155212	18.348		-0.920101761818	-1.09808827732
39.24	18.3447628021	18.289		-0.941121935844	-0.442337974796
39.34	18.2638511658	18.229		-0.809116721153	-0.109162838658
39.44	18.1800746918	18.169		-0.835967898369	0.258898722604
39.54	18.112947464	18.108		-0.656363070011	0.246615175172
39.64	18.0758934021	18.046		-0.368756741285	0.246615175172
39.74	18.0638999939	17.983		-0.119935445487	-1.58963242703
39.84	18.0633621216	17.92		-0.00531707331538	-2.86953609216
39.94	18.0368690491	17.855		-0.2649320364	-3.42160349147
40.04	17.9452171326	17.79		-0.916521608829	-2.46170582116
40.14	17.8193740845	17.724		-1.24419486523	-1.02387336952
40.24	17.7053451538	17.657		-1.12899184227	-0.230755016285
40.34	17.5956134796	17.59		-1.08645522594	0.402880742672
40.44	17.5091533661	17.521		-0.86460930109	0.548201334202
40.54	17.460105896	17.452		-0.490482270718	0.548201334202
