%1-Time(seg)	2-Pos_Encoder	3-x_ref	4-Velo_Encoder(m/s)	5-Torque(N.m)
3.4	0.0	0.0		0.0	0.0
3.5	0.0	0.003		0.0	0.0
3.6	0.0	0.011		0.0	0.0
3.7	0.0	0.026		0.0	0.521345
3.8	0.0	0.045		0.0	0.906285
3.9	0.001253056922	0.07		0.0125305699185	1.33951
4.0	0.0121725536883	0.1		0.108113802969	1.52785
4.1	0.0236290730536	0.135		0.114565201104	2.06463
4.2	0.0350855924189	0.175		0.114565201104	2.7986
4.3	0.0583566501737	0.221		0.230406492949	3.063315
4.4	0.0918311774731	0.27		0.331430852413	3.35226
4.5	0.13604618609	0.325		0.437772363424	3.495695
4.6	0.190464660525	0.384		0.544184684753	3.683875
4.7	0.257592707872	0.447		0.669490337372	3.527845
4.8	0.330269992352	0.515		0.71957719326	3.670405
4.9	0.406527459621	0.587		0.755024373531	3.792805
5.0	0.487797141075	0.663		0.812696874142	3.895045
5.1	0.575869143009	0.743		0.870227634907	3.83494
5.2	0.665910243988	0.827		0.898620843887	3.93837
5.3	0.763469696045	0.915		0.975594222546	3.813465
5.4	0.862819194794	1.007		0.981886088848	3.80246
5.5	0.963779807091	1.102		1.00960576534	3.874885
5.6	1.07046866417	1.2		1.06688833237	3.736735
5.7	1.17644143105	1.302		1.04923558235	3.77988
5.8	1.28241419792	1.407		1.0579379797	3.89906
5.9	1.38964009285	1.515		1.06164216995	3.929175
6.0	1.49973011017	1.626		1.10089993477	3.96809
6.1	1.61017811298	1.74		1.10448014736	4.112835
6.2	1.72366929054	1.856		1.12190246582	4.1168
6.3	1.83787643909	1.976		1.14028167725	4.24743
6.4	1.95405268669	2.098		1.16176259518	4.41358
6.5	2.07005000114	2.222		1.14848768711	4.61973
6.6	2.18909049034	2.349		1.19040417671	4.728175
6.7	2.31403827667	2.478		1.24768662453	4.73751
6.8	2.43558478355	2.609		1.20165836811	5.083925
6.9	2.56160640717	2.742		1.26021718979	5.191855
7.0	2.68959712982	2.877		1.26723563671	5.374735
7.1	2.82546424866	3.013		1.35688149929	5.33184
7.2	2.96222639084	3.152		1.35230886936	5.400925
7.3	3.10149478912	3.292		1.37712192535	5.54704
7.4	3.24344825745	3.433		1.41953444481	5.56649
7.5	3.3898768425	3.576		1.46428644657	5.45563
7.6	3.53666353226	3.72		1.45156085491	5.55362
7.7	3.68756747246	3.865		1.50724852085	5.436715
7.8	3.83668136597	4.011		1.491137743	5.54194
7.9	3.98955440521	4.157		1.51182115078	5.400395
8.0	4.14189052582	4.305		1.5233591795	5.38619
8.1	4.2970905304	4.453		1.55021035671	4.900115
8.2	4.45229053497	4.602		1.53663408756	5.37824
8.3	4.61500883102	4.752		1.61107313633	4.762105
8.4	4.77396821976	4.901		1.57208132744	4.720805
8.5	4.93256950378	5.051		1.58422195911	4.48445
8.6	5.08991765976	5.201		1.55790221691	4.399755
8.7	5.24440145493	5.351		1.5277723074	4.34594
8.8	5.39763259888	5.501		1.53230953217	4.18754
8.9	5.55014753342	5.651		1.5233591795	4.11497
9.0	5.69675540924	5.8		1.45156085491	4.211145
9.1	5.83745574951	5.949		1.40700387955	4.439035
9.2	5.9767241478	6.097		1.39089310169	4.495835
9.3	6.11527633667	6.245		1.37003231049	4.62019
9.4	6.2532916069	6.392		1.37836253643	5.11423
9.5	6.39452886581	6.538		1.3966178894	4.54048
9.6	6.53684043884	6.683		1.42311453819	4.54048
9.7	6.68488025665	6.826		1.47860705853	4.54048
9.8	6.83166694641	6.969		1.45156085491	4.54048
9.9	6.97755861282	7.11		1.45712602139	4.54048
10.0	7.12255525589	7.25		1.44817578793	3.924345
10.1	7.26289749146	7.389		1.38775599003	4.3096
10.2	7.40538787842	7.525		1.42490470409	4.138295
10.3	7.54286623001	7.66		1.37299239635	4.10329
10.4	7.68392467499	7.793		1.39484536648	3.84235
10.5	7.82122373581	7.924		1.37120223045	3.79026
10.6	7.95798587799	8.053		1.35408127308	3.57067
10.7	8.08794593811	8.18		1.28673171997	3.638365
10.8	8.21969604492	8.304		1.31570971012	3.354865
10.9	8.3492975235	8.426		1.28141450882	3.187665
11.0	8.47406578064	8.545		1.23356091976	3.104055
11.1	8.59919261932	8.662		1.24947667122	2.80779
11.2	8.72038078308	8.776		1.1981137991	2.6885
11.3	8.84031581879	8.887		1.187479496	2.40171
11.4	8.95201683044	8.995		1.11522054672	2.402205
11.5	9.06067466736	9.1		1.07582116127	2.241085
11.6	9.16127681732	9.201		0.994292616844	2.362095
11.7	9.25668811798	9.3		0.954113304615	2.303055
11.8	9.34672927856	9.395		0.889723539352	2.444795
11.9	9.42710399628	9.486		0.79578858614	2.444795
12.0	9.50443553925	9.574		0.763886153698	2.87729
12.1	9.58069324493	9.658		0.762574613094	2.87729
12.2	9.65730857849	9.738		0.766154766083	3.24383
12.3	9.73034381866	9.814		0.72312194109	2.67008
12.4	9.81859493256	9.886		0.882510006428	6.65126
12.5	9.81859493256	9.954		0.882510006428	3.356205
12.6	9.91275310516	10.017		0.939792692661	2.81589
12.7	10.0076274872	10.076		0.939349472523	1.793285
12.8	10.0973110199	10.13		0.886178731918	2.104865
12.9	10.1823396683	10.18		0.850288629532	1.257955
13.0	10.2603874207	10.225		0.772747993469	0.80254
13.1	10.3325281143	10.265		0.714260101318	0.18878
13.2	10.4003725052	10.3		0.669951200485	0.18878
13.3	10.4560441971	10.33		0.556715250015	-0.877375
13.4	10.5049133301	10.355		0.488692164421	-1.457945
13.5	10.5314064026	10.375		0.262308895588	-1.291715
13.6	10.5414304733	10.389		0.100244559348	-1.18013
13.7	10.5152950287	10.397		-0.261351853609	0.02508
13.8	10.4995422363	10.4		-0.154438376427	0.02508
13.9	10.4737653732	10.4		-0.257771670818	-0.031465
14.0	10.4470930099	10.4		-0.266722083092	0.158065
14.1	10.444229126	10.4		-0.0283577218652	0.158065
14.2	10.4435129166	10.4		-0.00716032506898	-0.85984
14.3	10.4404697418	10.4		-0.0304313823581	-0.76882
14.4	10.4241800308	10.4		-0.159512192011	-0.2276
14.5	10.4055633545	10.4		-0.186168447137	0.34612
14.6	10.396613121	10.4		-0.0886178836226	0.34612
14.7	10.3944654465	10.4		-0.02148097381	-0.41888
14.8	10.3865890503	10.4		-0.0779837444425	0.197255
14.9	10.3851566315	10.4		-0.0141788609326	0.197255
15.0	10.3828296661	10.4		-0.0232710558921	-0.0285699999999
15.1	10.3769226074	10.4		-0.0590726844966	0.23013
15.2	10.3731632233	10.4		-0.0372195132077	0.27998
15.3	10.3728055954	10.4		-0.00358016253449	0.21296
15.4	10.3728055954	10.4		0.0	0.27344
15.5	10.3728055954	10.4		0.0	0.33392
15.6	10.3728055954	10.4		0.0	0.3944
15.7	10.3728055954	10.4		0.0	0.45488
15.8	10.3728055954	10.4		0.0	0.51536
15.9	10.3726263046	10.4		-0.00179008126725	0.57584
16.0	10.3726263046	10.4		0.0	0.63632
16.1	10.3726263046	10.4		0.0	0.6968
16.2	10.3726263046	10.4		0.0	0.75728
16.3	10.3694038391	10.4		-0.0319024398923	1.00734
16.4	10.3629598618	10.4		-0.0644429177046	1.23365
16.5	10.3520402908	10.4		-0.10919495672	1.646625
16.6	10.3744163513	10.4		0.22154468298	0.36083
16.7	10.3781757355	10.4		0.0375917032361	0.93074
16.8	10.3812189102	10.4		0.0286413002759	0.965335
16.9	10.3892745972	10.4		0.0797560960054	0.72436
17.0	10.3987617493	10.4		0.0948743075132	0.482655
17.1	10.4048480988	10.4		0.0608627647161	0.83328
17.2	10.4071750641	10.4		0.0230406485498	0.83328
17.3	10.4154090881	10.4		0.0823437348008	0.122355
17.4	10.4213161469	10.4		0.0584878027439	0.28251
17.5	10.4213161469	10.4		0.0	0.42672
17.6	10.4213161469	10.4		0.0	0.37968
17.7	10.4213161469	10.4		0.0	0.33264
17.8	10.4213161469	10.4		0.0	0.2856
17.9	10.4213161469	10.4		0.0	0.23856
18.0	10.4213161469	10.4		0.0	0.19152
18.1	10.4213161469	10.4		0.0	0.14448
18.2	10.4213161469	10.4		0.0	0.0974400000001
18.3	10.4213161469	10.4		0.0	0.0504000000001
18.4	10.4213161469	10.4		0.0	0.00336000000009
18.5	10.4213161469	10.403		0.0	0.00336000000009
18.6	10.4213161469	10.411		0.0	0.00336000000009
18.7	10.4213161469	10.426		0.0	0.2352
18.8	10.4241800308	10.445		0.0283577218652	0.2352
18.9	10.4245376587	10.47		0.00358016253449	1.1831
19.0	10.4265069962	10.5		0.0196908935905	1.680485
19.1	10.4359941483	10.535		0.0939349606633	2.038975
19.2	10.4549694061	10.575		0.189748615026	2.27128
19.3	10.4678583145	10.62		0.128885835409	3.220145
19.4	10.4957838058	10.669		0.276487797499	3.404915
19.5	10.5335540771	10.723		0.377707123756	3.662145
19.6	10.5856456757	10.782		0.520913660526	3.70871
19.7	10.6463298798	10.845		0.599056899548	3.904445
19.8	10.7118473053	10.912		0.648682892323	4.098775
19.9	10.7850618362	10.984		0.72312194109	4.20795
20.0	10.8647203445	11.059		0.796586155891	4.30452
20.1	10.9463481903	11.139		0.814486920834	4.54171
20.2	11.0299453735	11.222		0.827690958977	4.7965
20.3	11.1176595688	11.309		0.877139866352	4.931185
20.4	11.2064476013	11.399		0.887880325317	5.276125
20.5	11.305975914	11.493		0.985430836678	5.06477
20.6	11.4033565521	11.59		0.972014188766	5.449655
20.7	11.5093297958	11.691		1.0579379797	5.320325
20.8	11.6315927505	11.794		1.21052014828	4.74595
20.9	11.7443675995	11.901		1.1259611845	5.152805
21.0	11.8682413101	12.01		1.23873639107	4.745965
21.1	11.9897880554	12.122		1.20165836811	4.745625
21.2	12.1238651276	12.237		1.33898067474	4.2569
21.3	12.2582998276	12.355		1.32926809788	3.899105
21.4	12.3927345276	12.474		1.34256088734	3.715725
21.5	12.5248422623	12.597		1.31928992271	3.556345
21.6	12.6578454971	12.721		1.3168617487	3.38253
21.7	12.7822561264	12.847		1.24231624603	3.56464
21.8	12.9045190811	12.976		1.222625494	3.570185
21.9	13.0226640701	13.106		1.16798377037	3.865985
22.0	13.1467170715	13.238		1.24052631855	3.69445
22.1	13.2670106888	13.371		1.20114457607	3.9801
22.2	13.3935689926	13.506		1.25128448009	3.81701
22.3	13.5192327499	13.643		1.24242269993	4.04819
22.4	13.6474027634	13.78		1.26723563671	4.316455
22.5	13.783449173	13.919		1.36046171188	3.90208
22.6	13.9232549667	14.059		1.39805352688	3.90208
22.7	14.0607328415	14.2		1.35939824581	3.90208
22.8	14.2019701004	14.341		1.41058409214	3.90208
22.9	14.3362264633	14.483		1.34077095985	3.90208
23.0	14.4717359543	14.626		1.33990240097	4.423425
23.1	14.6025905609	14.77		1.30675923824	4.66618
23.2	14.7320137024	14.913		1.29422879219	5.046125
23.3	14.8621530533	15.057		1.28850412369	5.269255
23.4	14.9928293228	15.201		1.30496931076	5.585255
23.5	15.1263694763	15.345		1.32040643692	5.835585
23.6	15.2591934204	15.489		1.32824027538	6.174305
23.7	15.4006099701	15.633		1.41237413883	6.11111
23.8	15.5434589386	15.776		1.41256904602	6.33927
23.9	15.6904249191	15.919		1.46786665916	6.28754
24.0	15.8441925049	16.061		1.53588962555	6.086335
24.1	15.9942016602	16.202		1.48346340656	6.2258
24.2	16.1520862579	16.343		1.57885169983	5.825165
24.3	16.3139095306	16.483		1.60043895245	5.483745
24.4	16.4769859314	16.622		1.61284554005	4.843625
24.5	16.6393470764	16.759		1.6218136549	4.962285
24.6	16.7997379303	16.896		1.58626008034	4.3286
24.7	16.9599494934	17.031		1.58448767662	3.911675
24.8	17.1176548004	17.164		1.56144702435	3.411355
24.9	17.269990921	17.296		1.50650382042	3.049095
25.0	17.4167766571	17.426		1.46786665916	2.706355
25.1	17.5499591827	17.555		1.33003032207	2.771255
25.2	17.6806354523	17.681		1.2920486927	2.49433
25.3	17.8105945587	17.805		1.29959893227	2.08626
25.4	17.9328575134	17.927		1.2208353281	2.01735
25.5	18.0486755371	18.047		1.1449431181	1.95125
25.6	18.1566181183	18.164		1.07941901684	2.05546
25.7	18.2579364777	18.279		1.01318585873	2.18488
25.8	18.3571071625	18.391		0.980113744736	2.22264
25.9	18.4560985565	18.501		0.989914894104	2.154055
26.0	18.5518684387	18.607		0.948211312294	2.25761
26.1	18.63671875	18.711		0.848498523235	2.692415
26.2	18.7178096771	18.811		0.809116721153	3.37769
26.3	18.8017654419	18.908		0.831235706806	2.42144
26.4	18.8819618225	19.002		0.801956474781	3.65371
26.5	18.9626941681	19.093		0.79933321476	3.499335
26.6	19.045217514	19.179		0.815284490585	3.598875
26.7	19.1304244995	19.263		0.852078616619	3.466915
26.8	19.21509552	19.342		0.846708416939	3.497405
26.9	19.3013782501	19.417		0.854276359081	3.305035
27.0	19.3871231079	19.489		0.857448935509	3.098655
27.1	19.4723300934	19.556		0.852078616619	2.900345
27.2	19.5544948578	19.619		0.813512086868	2.547085
27.3	19.6348686218	19.677		0.79578858614	2.33064
27.4	19.7113056183	19.732		0.756796658039	2.33064
27.5	19.7845191956	19.781		0.730353116989	1.548775
27.6	19.8509311676	19.826		0.664120137691	1.229965
27.7	19.9141216278	19.866		0.625642240047	1.229965
27.8	19.9654960632	19.901		0.513753354549	0.76193
27.9	19.9957485199	19.931		0.302523732185	0.617215
28.0	20.0333404541	19.955		0.372195124626	0.93566
28.1	20.0610866547	19.975		0.275672525167	0.263595
28.2	20.0610866547	19.989		0.275672525167	0.06866
28.3	20.0804195404	19.997		0.191538691521	0.669645
28.4	20.0916976929	20.0		0.111658535898	0.669645
28.5	20.0977840424	20.0		0.0608627647161	-0.429385
28.6	20.0977840424	20.0		0.0	-0.55328
28.7	20.1033325195	20.0		0.0554925203323	-1.009775
28.8	20.1253509521	20.0		0.220179989934	-2.12381
28.9	20.1033325195	20.0		-0.217999994755	-0.65987
29.0	20.0759449005	20.0		-0.273882418871	-0.312175
29.1	20.0652046204	20.0		-0.107404880226	-0.821695
29.2	20.0397853851	20.0		-0.251674771309	-0.133045
29.3	20.0181255341	20.0		-0.216599836946	0.02317
29.4	20.0118598938	20.0		-0.0626528412104	0.02317
29.5	20.008638382	20.0		-0.0319024398923	-0.0834199999999
29.6	20.0057735443	20.0		-0.0286413002759	-0.46592
29.7	20.0041618347	20.0		-0.0161107294261	-0.46592
29.8	19.99127388	20.0		-0.127609759569	-0.46592
29.9	19.9746265411	20.0		-0.166477560997	0.718955
30.0	19.9674663544	20.0		-0.0708943083882	0.35724
30.1	19.9608421326	20.0		-0.0662330091	0.46053
30.2	19.9606628418	20.0		-0.00179008126725	0.35664
30.3	19.9606628418	20.0		0.0	0.444
30.4	19.9606628418	20.0		0.0	0.53136
30.5	19.9606628418	20.0		0.0	0.61872
30.6	19.9606628418	20.0		0.0	0.70608
30.7	19.9606628418	20.0		0.0	0.79344
30.8	19.9565448761	20.0		-0.0411718674004	1.07038
30.9	19.9486694336	20.0		-0.0779837444425	1.41836
31.0	19.9683609009	20.0		0.196908935905	0.377095
31.1	19.9787425995	20.0		0.10279674083	0.533055
31.2	19.9787425995	20.0		0.0	0.93072
31.3	19.9814281464	20.0		0.0268512200564	0.88297
31.4	19.9914531708	20.0		0.0992520153522	0.0887750000001
31.5	19.9989719391	20.0		0.0744390264153	0.6944
31.6	19.9991512299	20.0		0.00179008126725	0.6944
31.7	19.9991512299	20.0		0.0	0.6944
31.8	19.9991512299	20.0		0.0	0.6944
31.9	19.9991512299	20.0		0.0	0.6944
32.0	19.9991512299	20.0		0.0	0.6944
32.1	19.9991512299	20.0		0.0	0.6944
32.2	19.9991512299	20.0		0.0	0.6944
32.3	19.9991512299	20.0		0.0	0.6944
32.4	19.9991512299	20.0		0.0	0.6944
32.5	19.9993305206	20.0		0.00179008126725	0.6944
32.6	19.9993305206	20.0		0.0	0.6944
32.7	19.9993305206	20.0		0.0	0.6944
32.8	19.9993305206	20.0		0.0	0.6944
32.9	19.9993305206	20.0		0.0	0.6944
33.0	19.9993305206	20.0		0.0	0.6944
33.1	19.9993305206	20.0		0.0	0.6944
33.2	19.9993305206	20.0		0.0	0.6944
33.3	19.9993305206	20.0		0.0	0.6944
33.4	19.9993305206	20.0		0.0	0.6944
33.5	19.9993305206	19.999		0.0	0.6944
33.6	19.9993305206	19.997		0.0	0.6944
33.7	19.9993305206	19.994		0.0	0.6944
33.8	19.9993305206	19.989		0.0	0.6944
33.9	19.9993305206	19.983		0.0	0.6944
34.0	19.9993305206	19.976		0.0	0.6944
34.1	19.9993305206	19.968		0.0	0.6944
34.2	19.9993305206	19.958		0.0	0.108
34.3	20.0002250671	19.947		0.00895040575415	0.108
34.4	20.0007629395	19.935		0.00537024345249	0.108
34.5	20.0014781952	19.921		0.00708943046629	-0.74656
34.6	20.004699707	19.906		0.0322214588523	-1.74751
34.7	19.9805335999	19.89		-0.239268273115	-0.935365
34.8	19.9674663544	19.873		-0.127609759569	-1.48503
34.9	19.9518928528	19.855		-0.15419511497	-1.68855
35.0	19.9289798737	19.835		-0.229130402207	-1.564785
35.1	19.8956851959	19.814		-0.329658508301	-1.273785
35.2	19.857378006	19.792		-0.383077383041	-0.97169
35.3	19.8337497711	19.769		-0.236290737987	-1.594365
35.4	19.7872085571	19.745		-0.460812985897	-0.58284
35.5	19.7603569031	19.72		-0.268512189388	-1.245975
35.6	19.7268829346	19.693		-0.331430852413	-0.664275
35.7	19.7084445953	19.665		-0.184378370643	-1.853325
35.8	19.6846370697	19.636		-0.238080814481	-1.645775
35.9	19.6638717651	19.606		-0.20559348166	-1.91036
36.0	19.6375579834	19.575		-0.261351853609	-1.90766
36.1	19.6080207825	19.543		-0.295363426208	-1.899235
36.2	19.5792007446	19.51		-0.285349577665	-2.083465
36.3	19.5453681946	19.475		-0.338325351477	-2.021085
36.4	19.50938797	19.44		-0.359806329012	-2.083965
36.5	19.4707221985	19.403		-0.382829248905	-2.049815
36.6	19.4304447174	19.366		-0.402768284082	-2.0253
36.7	19.3889141083	19.327		-0.41118696332	-2.0237
36.8	19.3472061157	19.287		-0.417088955641	-2.060535
36.9	19.3056755066	19.247		-0.415298849344	-2.153565
37.0	19.2618179321	19.205		-0.429970473051	-2.03842
37.1	19.2158126831	19.162		-0.460050880909	-2.00994
37.2	19.1694488525	19.118		-0.461840957403	-1.640735
37.3	19.1250553131	19.074		-0.435235470533	-1.99136
37.4	19.0811977386	19.028		-0.43677982688	-1.99136
37.5	19.0368041992	18.981		-0.437772363424	-1.99136
37.6	18.9931259155	18.933		-0.432455211878	-2.5601
37.7	18.9464054108	18.885		-0.467211216688	-2.251875
37.8	18.8995056152	18.835		-0.46900126338	-2.34391
37.9	18.8522472382	18.785		-0.467902421951	-2.40855
38.0	18.8039150238	18.733		-0.483321934938	-2.47767
38.1	18.7554035187	18.681		-0.480308890343	-2.598665
38.2	18.7061767578	18.627		-0.487398326397	-2.694505
38.3	18.6539058685	18.573		-0.522703707218	-2.74967
38.4	18.6014556885	18.518		-0.517528414726	-2.793795
38.5	18.5495433807	18.462		-0.517333447933	-3.01422
38.6	18.4958400726	18.405		-0.537024378777	-3.05319
38.7	18.4369468689	18.347		-0.583105623722	-2.97081
38.8	18.3766212463	18.289		-0.601467251778	-3.01145
38.9	18.3139686584	18.229		-0.624738335609	-2.905425
39.0	18.250957489	18.169		-0.62386995554	-2.978615
39.1	18.1906318665	18.108		-0.603257417679	-3.12352
39.2	18.1265468597	18.046		-0.634504079819	-3.030615
39.3	18.0595970154	17.983		-0.662861704826	-2.931825
39.4	17.9924697876	17.92		-0.671280443668	-2.45903
39.5	17.925163269	17.855		-0.66640651226	-2.90528
39.6	17.8585720062	17.79		-0.665910243988	-2.90528
39.7	17.7910861969	17.724		-0.67307060957	-2.90528
39.8	17.7230625153	17.657		-0.666893005371	-2.90528
39.9	17.6557559967	17.59		-0.67307060957	-2.90528
40.0	17.5882701874	17.521		-0.66640651226	-2.90528
40.1	17.5202465057	17.452		-0.673495829105	-2.90528
40.2	17.4529399872	17.383		-0.671280443668	-2.90528
40.3	17.3863487244	17.312		-0.665910243988	-2.90528
40.4	17.31939888	17.241		-0.661089420319	-2.90528
40.5	17.2513751984	17.169		-0.680230855942	-3.37923
40.6	17.1833515167	17.096		-0.673495829105	-3.27246
40.7	17.1151485443	17.023		-0.682020962238	-3.413295
40.8	17.0446186066	16.949		-0.703501939774	-3.438665
40.9	16.9726581573	16.874		-0.712487816811	-3.48711
41.0	16.8989067078	16.799		-0.728438913822	-3.524515
41.1	16.8235435486	16.723		-0.751834154129	-3.54864
41.2	16.7496128082	16.646		-0.730211377144	-3.69943
41.3	16.674249649	16.569		-0.744390249252	-3.743555
41.4	16.5965595245	16.491		-0.775105178356	-3.7744
41.5	16.5183334351	16.413		-0.774520277977	-3.789725
41.6	16.4399280548	16.334		-0.784055531025	-3.88208
41.7	16.359910965	16.254		-0.80016630888	-3.895165
41.8	16.2786407471	16.173		-0.804650425911	-3.937885
41.9	16.1966552734	16.093		-0.819857180119	-3.978365
42.0	16.112701416	16.011		-0.831235706806	-3.87442
42.1	16.0278511047	15.929		-0.848498523235	-3.904535
42.2	15.9480133057	15.846		-0.796586155891	-4.13303
42.3	15.8579721451	15.763		-0.89149582386	-3.780075
42.4	15.7693634033	15.679		-0.875544726849	-3.46134
42.5	15.6854085922	15.595		-0.839548110962	-3.84384
42.6	15.5985898972	15.51		-0.859593391418	-3.84384
42.7	15.5106973648	15.425		-0.878929972649	-3.84384
42.8	15.4253101349	15.339		-0.852078616619	-3.84384
42.9	15.3384914398	15.253		-0.857821166515	-3.84384
43.0	15.2509565353	15.166		-0.873559653759	-3.84384
43.1	15.1652116776	15.079		-0.848959326744	-3.84384
43.2	15.0812568665	14.991		-0.839548110962	-3.84384
43.3	14.9962282181	14.903		-0.850288629532	-3.84384
43.4	14.9142427444	14.814		-0.811739742756	-4.365185
43.5	14.8301086426	14.725		-0.841338157654	-4.276175
43.6	14.7440061569	14.636		-0.861029028893	-4.294825
43.7	14.6564712524	14.546		-0.864910423756	-4.294825
43.8	14.5716209412	14.455		-0.846708416939	-4.289155
43.9	14.4763889313	14.364		-0.952323257923	-4.58645
44.0	14.3829469681	14.273		-0.914345443249	-4.216465
44.1	14.2846717834	14.182		-0.980964541435	-4.32809
44.2	14.1867542267	14.09		-0.977384328842	-4.102635
44.3	14.0868673325	13.997		-0.979279637337	-8.381215
44.4	14.0868673325	13.905		-0.979279637337	-5.557355
44.5	13.9850120544	13.811		-1.01855623722	-5.50813
44.6	13.8840513229	13.718		-0.997837424278	-5.674315
44.7	13.7820167542	13.624		-1.01024389267	-5.634405
