%1-Time(seg)	2-Pos_Encoder	3-x_ref	4-Velo_Encoder(m/s)	5-Torque(N.m)
3.21	0.0	0.0		0.0	0.0
3.31	0.0	0.003		0.0	0.0
3.41	0.0	0.011		0.0	0.0
3.51	0.0	0.026		0.0	0.521345
3.61	0.0	0.045		0.0	0.906285
3.71	-0.0037591708824	0.07		-0.0375917032361	1.576485
3.81	0.0141416424885	0.1		0.17549815774	1.284885
3.91	0.0279252678156	0.135		0.137836262584	1.94552
4.01	0.0467211231589	0.175		0.187958538532	2.35512
4.11	0.0587146691978	0.221		0.118747971952	3.3693
4.21	0.085744895041	0.27		0.268512189388	3.637145
4.31	0.123515613377	0.325		0.372195124626	3.855265
4.41	0.179545164108	0.384		0.560295462608	3.784285
4.51	0.244346112013	0.447		0.646219372749	3.903985
4.61	0.320603579283	0.515		0.75325191021	3.71343
4.71	0.401873260736	0.587		0.812696874142	3.825785
4.81	0.483321964741	0.663		0.812696874142	4.066725
4.91	0.572647035122	0.743		0.884406447411	3.92303
5.01	0.664478182793	0.827		0.916521608829	4.049535
5.11	0.757920444012	0.915		0.932632386684	4.10317
5.21	0.854763865471	1.007		0.957073092461	4.149925
5.31	0.955187439919	1.102		0.994292616844	4.19204
5.41	1.05919110775	1.2		1.04003703594	4.136965
5.51	1.16623795033	1.302		1.05809748173	4.093605
5.61	1.27561187744	1.407		1.08291053772	4.07748
5.71	1.3887450695	1.515		1.11835753918	4.01156
5.81	1.50152015686	1.626		1.12775111198	4.069905
5.91	1.61930751801	1.74		1.16443896294	3.642265
6.01	1.73279869556	1.856		1.12367463112	4.05664
6.11	1.84969103336	1.976		1.16713285446	4.05664
6.21	1.96658337116	2.098		1.15557730198	4.05664
6.31	2.08633971214	2.222		1.1857073307	4.62538
6.41	2.20824432373	2.349		1.21904528141	4.36455
6.51	2.33122301102	2.478		1.21760964394	4.52174
6.61	2.45867681503	2.609		1.26191854477	4.481955
6.71	2.58899474144	2.742		1.30317914486	4.540035
6.81	2.72092366219	2.877		1.29166638851	4.600355
6.91	2.85607481003	3.013		1.34972119331	4.61552
7.01	2.99409008026	3.152		1.36648774147	4.56777
7.11	3.13210535049	3.292		1.36471521854	4.721475
7.21	3.27155280113	3.433		1.37889432907	4.7344
7.31	3.41386437416	3.576		1.42132461071	4.731805
7.41	3.55707097054	3.72		1.41788613796	4.80624
7.51	3.69830846786	3.865		1.3966178894	4.990985
7.61	3.83865094185	4.011		1.40163362026	5.13422
7.71	3.97863531113	4.157		1.38598370552	5.34933
7.81	4.11700868607	4.305		1.38373291492	5.60892
7.91	4.26218414307	4.453		1.44996595383	5.585705
8.01	4.40360069275	4.602		1.3983900547	5.87077
8.11	4.55504179001	4.752		1.51261866093	5.69449
8.21	4.70343971252	4.901		1.46928441525	5.95831
8.31	4.85917663574	5.051		1.55737066269	5.672555
8.41	5.01741981506	5.201		1.58243191242	5.6106
8.51	5.18103313446	5.351		1.6199349165	5.27823
8.61	5.34697389603	5.501		1.65761530399	5.27823
8.71	5.51022911072	5.651		1.63255405426	4.82138
8.81	5.66847229004	5.8		1.56499171257	5.45888
8.91	5.82743167877	5.949		1.57208132744	4.653165
9.01	5.99283504486	6.097		1.65224504471	4.68301
9.11	6.13944292068	6.245		1.45156085491	4.135565
9.21	6.28712463379	6.392		1.47502696514	4.67367
9.31	6.42943620682	6.538		1.4090243578	4.51584
9.41	6.42943620682	6.683		1.4090243578	4.658735
9.51	6.57783412933	6.826		1.46751213074	11.14657
9.61	6.74323749542	6.969		1.65224504471	5.81283
9.71	6.91598033905	7.11		1.70855271816	5.27815
9.81	7.08424806595	7.25		1.68088626862	5.073455
9.91	7.25341081619	7.389		1.68983674049	4.76005
10.01	7.4202466011	7.525		1.65183746815	4.119555
10.11	7.58189105988	7.66		1.61465334892	3.80597
10.21	7.74138736725	7.793		1.59317231178	3.36956
10.31	7.89515542984	7.924		1.52245521545	2.957825
10.41	8.03854084015	8.053		1.43206501007	2.782585
10.51	8.16939544678	8.18		1.28113663197	2.891965
10.61	8.30042934418	8.304		1.30854940414	2.47442
10.71	8.42663002014	8.426		1.26021718979	2.190935
10.81	8.54423809052	8.545		1.15126788616	2.248015
10.91	8.65862464905	8.662		1.14386188984	2.0139
11.01	8.76871490479	8.776		1.10089993477	1.962805
11.11	8.87504577637	8.887		1.04245901108	1.87916
11.21	8.97457408905	8.995		0.993495106697	1.923745
11.31	9.07159614563	9.1		0.968433916569	1.897345
11.41	9.16342735291	9.201		0.900305688381	2.03777
11.51	9.25311088562	9.3		0.895040631294	1.971745
11.61	9.33778190613	9.395		0.846708416939	2.16817
11.71	9.41045951843	9.486		0.71957719326	2.726885
11.81	9.48349475861	9.574		0.730353116989	2.671085
11.91	9.55456066132	9.658		0.701853573322	3.093465
12.01	9.62884902954	9.738		0.733756065369	3.00435
12.11	9.70081043243	9.814		0.719612658024	3.12972
12.21	9.77116107941	9.886		0.689707756042	3.24197
12.31	9.84115314484	9.954		0.699921786785	3.24183
12.41	9.91544151306	10.017		0.742883741856	2.99451
12.51	9.98955059052	10.076		0.731983721256	2.70438
12.61	10.0627651215	10.13		0.732143223286	2.48383
12.71	10.1327571869	10.18		0.698131680489	2.343065
12.81	10.2018547058	10.225		0.682357609272	1.71475
12.91	10.2680873871	10.265		0.662330031395	1.371425
13.01	10.3282337189	10.3		0.595512211323	0.99658
13.11	10.3835468292	10.33		0.553135097027	0.497665
13.21	10.4213171005	10.355		0.373967438936	0.647115
13.31	10.4589090347	10.375		0.372195124626	0.050265
13.41	10.4938154221	10.389		0.349065840244	0.050265
13.51	10.5206670761	10.397		0.268512189388	-0.479245
13.61	10.5407161713	10.4		0.198504030704	-1.33386
13.71	10.5521726608	10.4		0.114565201104	-1.65308
13.81	10.5738325119	10.4		0.216599836946	-2.78125
13.91	10.5460863113	10.4		-0.274715423584	-1.1427
14.01	10.5113582611	10.4		-0.347275793552	-0.703415
14.11	10.4743032455	10.4		-0.368756741285	-0.314065
14.21	10.4499578476	10.4		-0.24104064703	-0.52172
14.31	10.4265079498	10.4		-0.232178866863	-0.308635
14.41	10.3921384811	10.4		-0.340292692184	0.177425
14.51	10.3839044571	10.4		-0.0823437348008	0.07512
14.61	10.3796081543	10.4		-0.0425365865231	0.07512
14.71	10.3751325607	10.4		-0.0443089418113	0.07512
14.81	10.3609905243	10.4		-0.141416430473	0.50497
14.91	10.3597373962	10.4		-0.0125305699185	0.193475
15.01	10.3597373962	10.4		0.0	0.2512
15.11	10.3597373962	10.4		0.0	0.3408
15.21	10.3597373962	10.4		0.0	0.4304
15.31	10.3597373962	10.4		0.0	0.52
15.41	10.3597373962	10.4		0.0	0.6096
15.51	10.3597373962	10.4		0.0	0.6992
15.61	10.3597373962	10.4		0.0	0.7888
15.71	10.3583049774	10.4		-0.014320650138	0.97319
15.81	10.34649086	10.4		-0.116975605488	1.57226
15.91	10.3706569672	10.4		0.239268273115	0.125845
16.01	10.3744163513	10.4		0.0375917032361	0.845495
16.11	10.3774595261	10.4		0.0301300808787	0.857175
16.21	10.3840827942	10.4		0.0662330091	0.672555
16.31	10.3864097595	10.4		0.0232710558921	0.83673
16.41	10.3873052597	10.4		0.00886178854853	0.884445
16.51	10.3908853531	10.4		0.0358016230166	0.329305
16.61	10.3958978653	10.4		0.0501222796738	0.74368
16.71	10.3987617493	10.4		0.0283577218652	0.74368
16.81	10.4078912735	10.4		0.0912941396236	0.74368
16.91	10.4161252975	10.4		0.0823437348008	0.74368
17.01	10.4245386124	10.4		0.0824841409922	0.74368
17.11	10.4245386124	10.4		0.0	0.26384
17.21	10.4245386124	10.4		0.0	0.20784
17.31	10.4247179031	10.4		0.00177235761657	0.15184
17.41	10.4247179031	10.4		0.0	0.09584
17.51	10.4247179031	10.4		0.0	0.03984
17.61	10.4247179031	10.4		0.0	0.03984
17.71	10.4248971939	10.4		0.00179008126725	0.03984
17.81	10.4281196594	10.4		0.0315896682441	-0.270345
17.91	10.4295520782	10.4		0.0125305699185	-0.33223
18.01	10.4172000885	10.4		-0.123515605927	0.280455
18.11	10.4071760178	10.4		-0.0992520153522	0.633715
18.21	10.4068183899	10.4		-0.00358016253449	0.09184
18.31	10.4068183899	10.403		0.0	0.09184
18.41	10.4068183899	10.411		0.0	0.09184
18.51	10.4068183899	10.426		0.0	0.09184
18.61	10.4068183899	10.445		0.0	0.992345
18.71	10.4046707153	10.47		-0.02148097381	1.424575
18.81	10.4193496704	10.5		0.146786674857	1.366145
18.91	10.4297323227	10.535		0.10279674083	2.030265
19.01	10.4492444992	10.575		0.195118874311	2.33976
19.11	10.4601640701	10.62		0.108113802969	3.396855
19.21	10.4834346771	10.669		0.230406492949	3.77277
19.31	10.5224580765	10.723		0.388447612524	3.85235
19.41	10.5765180588	10.782		0.540604531765	3.815485
19.51	10.6432876587	10.845		0.661089420319	3.842635
19.61	10.7184715271	10.912		0.742617845535	3.80838
19.71	10.798666954	10.984		0.794016122818	3.81183
19.81	10.8820848465	11.059		0.834177911282	3.989855
19.91	10.9717683792	11.139		0.896830677986	3.858035
20.01	11.0628833771	11.222		0.902130007744	4.009695
20.11	11.1543569565	11.309		0.912941455841	4.1514
20.21	11.2469043732	11.399		0.923681914806	4.27435
20.31	11.3426733017	11.493		0.948211312294	4.32011
20.41	11.4346837997	11.59		0.920101761818	4.73159
20.51	11.5238294601	11.691		0.891460478306	5.17692
20.61	11.617808342	11.794		0.930487751961	5.401525
20.71	11.7216329575	11.901		1.03645706177	5.294525
20.81	11.8165073395	12.01		0.94874304533	6.05642
20.91	11.9325046539	12.122		1.1599727869	5.530315
21.01	12.0527982712	12.237		1.20293450356	5.54676
21.11	12.1763134003	12.355		1.22115421295	5.57716
21.21	12.3053779602	12.474		1.28885853291	5.447455
21.31	12.4417819977	12.597		1.36225187778	5.05697
21.41	12.5844516754	12.721		1.41256904602	4.801895
21.51	12.7281951904	12.847		1.43564510345	4.820505
21.61	12.8737287521	12.976		1.45354604721	3.955215
21.71	13.0146083832	13.106		1.39307296276	4.18662
21.81	13.1529817581	13.238		1.38194262981	4.1026
21.91	13.2879543304	13.371		1.34793114662	4.110135
22.01	13.4216737747	13.506		1.31097114086	4.046365
22.11	13.5586147308	13.643		1.36941218376	3.86921
22.21	13.6914386749	13.78		1.31331694126	4.051215
22.31	13.8308858871	13.919		1.39447331429	3.642135
22.41	13.9665737152	14.059		1.3550914526	3.765705
22.51	14.1076316833	14.2		1.39484536648	3.515165
22.61	14.2515544891	14.341		1.43743526936	3.295095
22.71	14.3920755386	14.483		1.39130079746	3.321635
22.81	14.534029007	14.626		1.40547955036	3.17552
22.91	14.670791626	14.77		1.36583197117	3.34565
23.01	14.8059425354	14.913		1.33635759354	3.480155
23.11	14.9342918396	15.057		1.27078056335	3.823565
23.21	15.0581655502	15.201		1.23694610596	4.293695
23.31	15.1791753769	15.345		1.18636763096	4.66701
23.41	15.3012590408	15.489		1.21904528141	5.05773
23.51	15.4247741699	15.633		1.23515617847	5.40294
23.61	15.5482902527	15.776		1.21093738079	5.904095
23.71	15.6752071381	15.919		1.26916742325	6.18344
23.81	15.8092842102	16.061		1.33898067474	6.326235
23.91	15.9481945038	16.203		1.3618657589	6.427945
24.01	16.0921173096	16.343		1.43922531605	6.427945
24.11	16.2444534302	16.483		1.5215690136	6.49065
24.21	16.3951778412	16.622		1.49232506752	6.2343
24.31	16.5523471832	16.759		1.56990122795	6.317215
24.41	16.7139911652	16.896		1.61465334892	6.01185
24.51	16.7139911652	17.031		1.61465334892	5.557525
24.61	16.8781414032	17.164		1.62347948551	11.57386
24.71	17.0569705963	17.296		1.76881289482	6.29391
24.81	17.236158371	17.427		1.77235746384	5.772275
24.91	17.4219684601	17.555		1.85631430149	4.5611
25.01	17.6052722931	17.681		1.83125305176	4.10385
25.11	17.7835636139	17.805		1.76349580288	3.073665
25.21	17.9486083984	17.927		1.63234126568	2.589125
25.31	18.1013031006	18.047		1.52514922619	2.15159
25.41	18.2595462799	18.164		1.5667642355	0.869675
25.51	18.4061546326	18.279		1.46428644657	0.261225
25.61	18.5405902863	18.391		1.34256088734	0.261225
25.71	18.6607055664	18.501		1.187479496	-0.63292
25.81	18.7659626007	18.607		1.05077767372	-0.745745
25.91	18.8579730988	18.711		0.91099178791	-0.83519
26.01	18.9113178253	18.811		0.533444166183	0.573465
26.11	18.9489097595	18.909		0.372195124626	1.43833
26.21	18.9825630188	19.002		0.33320325613	2.18624
26.31	19.0258827209	19.093		0.433199673891	2.35023
26.41	19.0534496307	19.18		0.275672525167	3.736
26.51	19.0921154022	19.263		0.382829248905	4.06056
26.61	19.1420593262	19.342		0.499432682991	4.291715
26.71	19.2116928101	19.417		0.696341633797	3.937435
26.81	19.2875919342	19.489		0.742357194424	3.894365
26.91	19.368144989	19.556		0.803746461868	3.83604
27.01	19.4553222656	19.619		0.871769607067	3.41418
27.11	19.5441093445	19.677		0.868715822697	3.04565
27.21	19.6309280396	19.732		0.868189394474	2.667945
27.31	19.7172107697	19.781		0.852504074574	2.226115
27.41	19.8004493713	19.826		0.832387804985	1.63641
27.51	19.8736629486	19.866		0.732143223286	1.303145
27.61	19.9400749207	19.901		0.651098191738	0.88773
27.71	19.9955673218	19.931		0.554925203323	0.555425
27.81	20.0508804321	19.955		0.553135097027	0.555425
27.91	20.0972442627	19.975		0.457268297672	0.555425
28.01	20.1351947784	19.989		0.377707123756	0.26041
28.11	20.1606140137	19.997		0.254191547632	0.26041
28.21	20.1794090271	20.0		0.186097562313	-2.17983
28.31	20.1956996918	20.0		0.161284536123	-2.67729
28.41	20.1729660034	20.0		-0.223317071795	-1.579995
28.51	20.136806488	20.0		-0.361596405506	-0.99442
28.61	20.0956344604	20.0		-0.411718666553	-0.505605
28.71	20.058221817	20.0		-0.370422780514	-0.22651
28.81	20.024389267	20.0		-0.338325351477	0.04375
28.91	20.011680603	20.0		-0.127095773816	0.04375
29.01	19.9871559143	20.0		-0.23867751658	0.04375
29.11	19.9651374817	20.0		-0.220179989934	0.52541
29.21	19.9642429352	20.0		-0.00895040575415	0.52541
29.31	19.9608421326	20.0		-0.0319024398923	0.52541
29.41	19.9542179108	20.0		-0.0662330091	0.464405
29.51	19.9542179108	20.0		0.0	0.34432
29.61	19.95403862	20.0		-0.00177235761657	0.44736
29.71	19.95403862	20.0		0.0	0.5504
29.81	19.95403862	20.0		0.0	0.65344
29.91	19.9538593292	20.0		-0.00179008126725	0.75648
30.01	19.9511737823	20.0		-0.0268512200564	1.001705
30.11	19.9407920837	20.0		-0.10279674083	1.48979
30.21	19.9232501984	20.0		-0.175427958369	2.15631
30.31	19.9520702362	20.0		0.288203090429	0.380585
30.41	19.9570827484	20.0		0.0491394810379	1.175505
30.51	19.9577980042	20.0		0.00716032506898	1.383805
30.61	19.9701499939	20.0		0.123515605927	0.94102
30.71	19.9762363434	20.0		0.0602601617575	1.10635
30.81	19.9785633087	20.0		0.0232710558921	1.209175
30.91	19.986618042	20.0		0.0797560960054	0.97268
31.01	19.9982528687	20.0		0.116355285048	0.640665
31.11	20.0041599274	20.0		0.0590726844966	1.05504
31.21	20.0050544739	20.0		0.00886178854853	1.05504
31.31	20.0150794983	20.0		0.100244559348	0.344115
31.41	20.0208072662	20.0		0.0572826005518	0.50427
31.51	20.0208072662	20.0		0.0	0.64848
31.61	20.0208072662	20.0		0.0	0.60144
31.71	20.0208072662	20.0		0.0	0.5544
31.81	20.0208072662	20.0		0.0	0.50736
31.91	20.0208072662	20.0		0.0	0.46032
32.01	20.020986557	20.0		0.00179008126725	0.41328
32.11	20.020986557	20.0		0.0	0.36624
32.21	20.0211658478	20.0		0.00179008126725	0.3192
32.31	20.0211658478	20.0		0.0	0.27216
32.41	20.0213451385	20.0		0.00177235761657	0.22512
32.51	20.0213451385	20.0		0.0	0.17808
32.61	20.0215244293	20.0		0.00177235761657	0.0836450000001
32.71	20.0215244293	20.0		0.0	0.06624
32.81	20.0215244293	20.0		0.0	0.01696
32.91	20.0215244293	20.0		0.0	0.01696
33.01	20.0215244293	20.0		0.0	0.01696
33.11	20.0215244293	20.0		0.0	-0.13088
33.21	20.0217037201	20.0		0.00177235761657	-0.18016
33.31	20.0324440002	19.999		0.105614796281	-0.70339
33.41	20.0089931488	19.997		-0.232178866863	0.58637
33.51	20.0016536713	19.994		-0.0726666674018	0.33667
33.61	20.0007591248	19.989		-0.00895040575415	0.01792
33.71	20.000579834	19.983		-0.00177235761657	0.01792
33.81	19.9980735779	19.976		-0.0250611398369	0.01792
33.91	19.9925251007	19.968		-0.0554925203323	-0.162705
34.01	19.9850063324	19.958		-0.0744390264153	-0.36016
34.11	19.9746246338	19.947		-0.103824712336	-0.39824
34.21	19.9637050629	19.935		-0.10919495672	-0.43632
34.31	19.9527854919	19.921		-0.106341451406	-0.521795
34.41	19.9424037933	19.906		-0.103824712336	-0.672425
34.51	19.9296951294	19.89		-0.127095773816	-0.766025
34.61	19.9198493958	19.873		-0.0974796637893	-1.00853
34.71	19.906244278	19.855		-0.134699165821	-1.00853
34.81	19.8933563232	19.835		-0.128885835409	-1.026665
34.91	19.8933563232	19.814		-0.128885835409	-1.241935
35.01	19.8403682709	19.792		-0.356226176023	-2.30516
35.11	19.8403682709	19.769		-0.356226176023	0.0271800000001
35.21	19.8253307343	19.745		-0.148878052831	0.0271800000001
35.31	19.7966899872	19.72		-0.286412984133	-1.58002
35.41	19.7766418457	19.693		-0.200489118695	-2.060975
35.51	19.7472839355	19.665		-0.290666669607	-1.887095
35.61	19.7250862122	19.636		-0.220179989934	-2.38805
35.71	19.6925067902	19.606		-0.325794786215	-2.189015
35.81	19.6597480774	19.575		-0.324341446161	-2.270135
35.91	19.6201877594	19.543		-0.395607978106	-2.060165
36.01	19.578836441	19.51		-0.41350877285	-2.021285
36.11	19.5364112854	19.475		-0.418276369572	-1.91485
36.21	19.4939861298	19.44		-0.424249261618	-1.960075
36.31	19.4524555206	19.403		-0.415298849344	-1.893995
36.41	19.4103889465	19.366		-0.416504055262	-1.57526
36.51	19.3676052094	19.327		-0.427829444408	-1.95776
36.61	19.3260746002	19.287		-0.407155781984	-1.95776
36.71	19.2845439911	19.247		-0.415298849344	-1.95776
36.81	19.2433719635	19.205		-0.411718666553	-1.95776
36.91	19.2029151917	19.162		-0.400552839041	-1.95776
37.01	19.1626377106	19.118		-0.402768284082	-1.95776
37.11	19.1211071014	19.074		-0.41350877285	-1.95776
37.21	19.0797557831	19.028		-0.409414619207	-1.95776
37.31	19.0391216278	18.981		-0.406348437071	-2.479105
37.41	19.0002765656	18.933		-0.388447612524	-2.53228
37.51	18.9583892822	18.885		-0.414731681347	-2.60421
37.61	18.9118480682	18.835		-0.465421140194	-2.56375
37.71	18.8635158539	18.785		-0.47853654623	-2.65527
37.81	18.8157215118	18.733		-0.477951705456	-2.75127
37.91	18.7641677856	18.681		-0.515543341637	-2.75696
38.01	18.7110023499	18.627		-0.524617791176	-2.779005
38.11	18.6585521698	18.573		-0.52449375391	-2.97287
38.21	18.6066398621	18.518		-0.519123613834	-3.07559
38.31	18.5473880768	18.462		-0.586650371552	-2.851025
38.41	18.4865245819	18.405		-0.606837570667	-2.88578
38.51	18.4276313782	18.347		-0.583105623722	-2.97449
38.61	18.3685588837	18.289		-0.584877967834	-3.042365
38.71	18.3076953888	18.229		-0.606837570667	-2.981335
38.81	18.2448635101	18.169		-0.626528441906	-2.977335
38.91	18.1813163757	18.108		-0.629186928272	-2.91922
39.01	18.1184844971	18.046		-0.628318548203	-2.50486
39.11	18.0543994904	17.983		-0.634504079819	-2.88736
39.21	17.9890613556	17.92		-0.65158957243	-2.88736
39.31	17.9253349304	17.855		-0.637268900871	-2.88736
39.41	17.8610706329	17.79		-0.636276304722	-2.88736
39.51	17.7959117889	17.724		-0.65158957243	-2.88736
39.61	17.7303943634	17.657		-0.655169725418	-2.88736
39.71	17.6648769379	17.59		-0.648682892323	-2.88736
39.81	17.598285675	17.521		-0.664120137691	-2.88736
39.91	17.5322322845	17.452		-0.660539984703	-3.408705
40.01	17.4647464752	17.383		-0.668178796768	-3.17751
40.11	17.3954696655	17.312		-0.692761421204	-3.095485
40.21	17.3260135651	17.241		-0.687674760818	-3.24903
40.31	17.2567367554	17.169		-0.685902357101	-3.31143
40.41	17.1890716553	17.096		-0.676650702953	-3.4731
40.51	17.1187210083	17.023		-0.69653648138	-3.532585
40.61	17.046043396	16.949		-0.726773023605	-3.48848
40.71	16.972650528	16.874		-0.732143223286	-3.587395
40.81	16.8988990784	16.799		-0.730211377144	-3.656675
40.91	16.8229999542	16.723		-0.758994460106	-3.633405
41.01	16.7465629578	16.646		-0.762574613094	-3.71904
41.11	16.6692314148	16.569		-0.76565849781	-3.725405
41.21	16.5884990692	16.491		-0.807326674461	-3.61922
41.31	16.5083026886	16.413		-0.80016630888	-3.69449
41.41	16.4277496338	16.334		-0.797560930252	-3.70153
41.51	16.3468379974	16.254		-0.809116721153	-3.70409
41.61	16.2650318146	16.173		-0.802026629448	-3.70217
41.71	16.1841201782	16.093		-0.809116721153	-3.79056
41.81	16.1015968323	16.011		-0.825227439404	-3.293855
41.91	16.0201473236	15.929		-0.798516631126	-3.64448
42.01	15.9370880127	15.846		-0.830597698689	-3.64448
42.11	15.8545656204	15.763		-0.823437333107	-3.64448
42.21	15.7715063095	15.679		-0.814311563969	-3.64448
42.31	15.6893415451	15.595		-0.821647286415	-3.64448
42.41	15.6071767807	15.51		-0.819857180119	-4.21322
42.51	15.5244750977	15.425		-0.818829238415	-3.95239
42.61	15.4405202866	15.339		-0.839548110962	-4.01479
42.71	15.3565654755	15.253		-0.831235706806	-4.08167
42.81	15.2727899551	15.166		-0.837758004665	-4.15303
42.91	15.1866874695	15.079		-0.861029028893	-4.181475
43.01	15.0996894836	14.991		-0.851166129112	-4.19664
43.11	15.0121545792	14.903		-0.873559653759	-4.24368
43.21	14.9205026627	14.814		-0.914731502533	-4.148535
