%1-Time(seg)	2-Pos_Encoder	3-x_ref	4-Velo_Encoder(m/s)	5-Torque(N.m)
3.33	0.0	0.0		0.0	0.0
3.43	0.0	0.003		0.0	0.0
3.53	0.0	0.011		0.0	0.0
3.63	0.0	0.026		0.0	0.521345
3.73	0.0	0.045		0.0	0.906285
3.83	0.0037591708824	0.07		0.0375917032361	1.197325
3.93	0.020943954587	0.1		0.170146346092	1.197325
4.03	0.0363386534154	0.135		0.153946980834	1.1902
4.13	0.0565665736794	0.175		0.202279180288	1.755885
4.23	0.0689181312919	0.221		0.123515605927	2.08465
4.33	0.0689181312919	0.27		0.123515605927	3.14018
4.43	0.0954113304615	0.325		0.262308895588	5.755375
4.53	0.134793117642	0.384		0.389918655157	4.658925
4.63	0.197624981403	0.447		0.628318548203	4.41682
4.73	0.276030540466	0.515		0.782265484333	4.250035
4.83	0.36463958025	0.587		0.875544726849	4.115905
4.93	0.459871888161	0.663		0.952323257923	4.031195
5.03	0.55671530962	0.743		0.968433916569	4.053505
5.13	0.658570945263	0.827		1.00669908524	3.91763
5.23	0.763290703297	0.915		1.04540741444	3.85914
5.33	0.867831468582	1.007		1.04361736774	3.834285
5.43	0.974699318409	1.102		1.05632507801	3.770515
5.53	1.08156716824	1.2		1.06867849827	3.75158
5.63	1.19112014771	1.302		1.08291053772	3.23098
5.73	1.29762995243	1.407		1.0545527935	3.86848
5.83	1.40879404545	1.515		1.11164045334	3.86848
5.93	1.51745200157	1.626		1.07404875755	3.86848
6.03	1.62897408009	1.74		1.10417878628	3.86848
6.13	1.7390640974	1.857		1.10089993477	3.86848
6.23	1.85148119926	1.976		1.11126828194	3.86848
6.33	1.96318233013	2.098		1.10595118999	4.484615
6.43	2.07792663574	2.222		1.14744210243	4.431125
6.53	2.19642996788	2.349		1.17152833939	4.53717
6.63	2.31493330002	2.478		1.1733007431	4.78332
6.73	2.43737483025	2.609		1.2122926712	4.936245
6.83	2.56285953522	2.742		1.25305688381	5.041935
6.93	2.69353556633	2.877		1.30496931076	5.08039
7.03	2.82886576653	3.013		1.32501113415	5.12416
7.13	2.9674179554	3.152		1.38373291492	5.13689
7.23	3.10776042938	3.292		1.40163362026	5.20889
7.33	3.25204110146	3.433		1.41451525688	5.18162
7.43	3.39811182022	3.576		1.46070623398	5.161745
7.53	3.54704666138	3.72		1.4875575304	5.11515
7.63	3.69830846786	3.865		1.48120450974	5.039595
7.73	3.84903335571	4.011		1.50545835495	5.02763
7.83	3.99725198746	4.158		1.48039734364	5.15993
7.93	4.1476187706	4.305		1.48700809479	5.06546
8.03	4.29440546036	4.453		1.46607649326	5.262755
8.13	4.44316101074	4.602		1.47105681896	5.208125
8.23	4.5942440033	4.752		1.51082849503	4.78845
8.33	4.74425268173	4.901		1.50008809566	5.1072
8.43	4.89748382568	5.051		1.51713824272	5.1072
8.53	5.05304193497	5.201		1.5537904501	5.1072
8.63	5.21092700958	5.351		1.57706153393	4.63325
8.73	5.36809635162	5.501		1.5543576479	4.597835
8.83	5.52633953094	5.651		1.58064174652	4.40372
8.93	5.67885446548	5.8		1.5233591795	4.460535
9.03	5.83298063278	5.949		1.50928425789	4.256465
9.13	5.98281049728	6.097		1.49650800228	4.294525
9.23	6.13031339645	6.245		1.45865046978	4.297635
9.33	6.27208805084	6.392		1.41595435143	4.47621
9.43	6.41296768188	6.538		1.39307296276	4.50885
9.53	6.54740285873	6.683		1.3310406208	5.265855
9.63	6.68935632706	6.826		1.41953444481	4.59648
9.73	6.83274173737	6.969		1.41965854168	4.59648
9.83	6.97809648514	7.11		1.43915438652	4.59648
9.93	7.12166118622	7.25		1.43564510345	4.02774
10.03	7.2609295845	7.389		1.39268326759	4.430755
10.13	7.40234613419	7.525		1.40016245842	4.27945
10.23	7.54286766052	7.66		1.40521371365	4.077105
10.33	7.67980909348	7.793		1.3558536768	4.10137
10.43	7.817466259	7.924		1.37657237053	3.93074
10.53	7.94760513306	8.053		1.30138897896	4.00448
10.63	8.08490467072	8.18		1.35939824581	3.57156
10.73	8.2168340683	8.304		1.31928992271	3.517905
10.83	8.35180664062	8.426		1.34793114662	3.073055
10.93	8.47639656067	8.545		1.23356091976	3.22137
11.03	8.6029548645	8.662		1.26558756828	2.79396
11.13	8.72253227234	8.776		1.19577431679	2.776855
11.23	8.8392457962	8.887		1.15380465984	2.64105
11.33	8.9530954361	8.995		1.13670158386	2.421495
11.43	9.06282711029	9.1		1.09731972218	2.27449
11.53	9.1689786911	9.201		1.05100810528	2.138525
11.63	9.26958084106	9.3		1.00423550606	2.01584
11.73	9.36696147919	9.395		0.96416258812	1.95607
11.83	9.46094036102	9.486		0.939792692661	1.789635
11.93	9.54883289337	9.574		0.870227634907	1.752105
12.03	9.62974452972	9.658		0.79933321476	1.847125
12.13	9.70904541016	9.738		0.791215956211	1.735535
12.23	9.77957439423	9.814		0.703501939774	1.888475
12.33	9.83900547028	9.886		0.586650371552	2.313235
12.43	9.89610862732	9.954		0.571035921574	2.426285
12.53	9.95213794708	10.017		0.558505356312	2.39971
12.63	10.0099573135	10.076		0.572471559048	2.08096
12.73	10.0650920868	10.13		0.551345050335	2.602305
12.83	10.1207637787	10.18		0.55120319128	1.754975
12.93	10.1746454239	10.225		0.533479571342	2.1056
13.03	10.2279901505	10.265		0.533444166183	2.1056
13.13	10.2809762955	10.3		0.524617791176	1.34728
13.23	10.3321723938	10.33		0.511963248253	1.06312
13.33	10.381937027	10.355		0.497642576694	0.55354
13.43	10.4143371582	10.375		0.320796728134	0.742795
13.53	10.4556884766	10.389		0.411718666553	0.742795
13.63	10.4816446304	10.397		0.256991833448	0.742795
13.73	10.5068845749	10.4		0.249902427197	0.1213
13.83	10.5224580765	10.4		0.155737057328	0.1213
13.93	10.5287237167	10.4		0.0626528412104	-1.367285
14.03	10.5446557999	10.4		0.157739818096	-2.19144
14.13	10.5142240524	10.4		-0.302523732185	-0.536995
14.23	10.4961442947	10.4		-0.179008126259	-0.92737
14.33	10.460521698	10.4		-0.352699160576	-0.057335
14.43	10.4417257309	10.4		-0.187958538532	-0.409095
14.53	10.4293737411	10.4		-0.121093735099	-0.492665
14.63	10.3964366913	10.4		-0.329374939203	0.402455
14.73	10.3883810043	10.4		-0.0805536583066	0.04682
14.83	10.3883810043	10.4		0.0	0.04682
14.93	10.3876647949	10.4		-0.00716032506898	0.04682
15.03	10.3864116669	10.4		-0.0125305699185	-0.16025
15.13	10.3853378296	10.4		-0.0106341466308	-0.145245
15.23	10.3760290146	10.4		-0.0930842235684	0.283035
15.33	10.371553421	10.4		-0.0447520315647	0.2395
15.43	10.371553421	10.4		0.0	0.17472
15.53	10.3683309555	10.4		-0.0322214588523	0.42702
15.63	10.3652877808	10.4		-0.0301300808787	0.513385
15.73	10.3652877808	10.4		0.0	0.49616
15.83	10.36510849	10.4		-0.00179008126725	0.57456
15.93	10.36510849	10.4		0.0	0.65296
16.03	10.36510849	10.4		0.0	0.73136
16.13	10.3647508621	10.4		-0.00358016253449	0.80976
16.23	10.354010582	10.4		-0.106341451406	1.409505
16.33	10.3434486389	10.4		-0.103824712336	1.683265
16.43	10.3715524673	10.4		0.28104275465	0.085865
16.53	10.3821144104	10.4		0.104569092393	0.59901
16.63	10.3828306198	10.4		0.00716032506898	0.910685
16.73	10.3862314224	10.4		0.0340115427971	0.838455
16.83	10.3953609467	10.4		0.0903902426362	0.30191
16.93	10.3994779587	10.4		0.0411718674004	0.74816
17.03	10.4021635056	10.4		0.0265853628516	0.74816
17.13	10.4129037857	10.4		0.107404880226	0.132025
17.23	10.4202432632	10.4		0.0733933374286	0.185515
17.33	10.420422554	10.4		0.00177235761657	0.36384
17.43	10.420422554	10.4		0.0	0.31904
17.53	10.4206018448	10.4		0.00179008126725	0.226845
17.63	10.4206018448	10.4		0.0	0.21168
17.73	10.4206018448	10.4		0.0	0.16464
17.83	10.4206018448	10.4		0.0	0.1176
17.93	10.4206018448	10.4		0.0	0.0705600000001
18.03	10.4206018448	10.4		0.0	0.0235200000001
18.13	10.4206018448	10.4		0.0	0.0235200000001
18.23	10.4206018448	10.4		0.0	0.0235200000001
18.33	10.4206018448	10.4		0.0	-0.1176
18.43	10.4211387634	10.403		0.00531707331538	-0.16464
18.53	10.432595253	10.411		0.114565201104	-0.638235
18.63	10.4129047394	10.426		-0.195118874311	1.00329
18.73	10.3975095749	10.445		-0.152422755957	1.3741
18.83	10.4132623672	10.47		0.157527148724	0.7339
18.93	10.4247188568	10.5		0.114565201104	1.294215
19.03	10.440829277	10.535		0.159512192011	1.64417
19.13	10.4583721161	10.575		0.175427958369	2.18319
19.23	10.4696493149	10.62		0.112775117159	3.10898
19.33	10.4939947128	10.669		0.24104064703	3.446975
19.43	10.5353460312	10.723		0.41350877285	3.446975
19.53	10.588511467	10.782		0.526390254498	3.439
19.63	10.6499109268	10.845		0.613997876644	3.48416
19.73	10.7177553177	10.912		0.678440749645	3.68953
19.83	10.7931175232	10.984		0.74616253376	3.811985
19.93	10.874745369	11.059		0.81627702713	3.87668
20.03	10.874745369	11.139		0.81627702713	3.92429
20.13	11.0646724701	11.222		1.01378846169	7.71006
20.23	11.1441516876	11.309		0.786926865578	1.057355
20.33	11.1441516876	11.399		0.786926865578	4.69582
20.43	11.2809143066	11.493		1.36762213707	6.63884
20.53	11.3933315277	11.59		1.11126828194	4.77505
20.63	11.5080757141	11.691		1.13430893421	4.71969
20.73	11.6201343536	11.794		1.11880075932	4.955775
20.83	11.7373847961	11.901		1.15912187099	4.80191
20.93	11.8456850052	12.01		1.07227635384	5.28105
21.03	11.9713487625	12.122		1.24242269993	4.70968
21.13	12.0923585892	12.237		1.20830488205	4.880485
21.23	12.2156953812	12.355		1.21938204765	4.808005
21.33	12.3377790451	12.475		1.20697557926	4.95234
21.43	12.4672021866	12.597		1.2924387455	4.312205
21.53	12.6034269333	12.721		1.34699165821	4.85408
21.63	12.7435903549	12.847		1.38598370552	3.763995
21.73	12.8821430206	12.976		1.38373291492	3.87686
21.83	13.0196208954	13.106		1.35939824581	3.754405
21.93	13.1536979675	13.238		1.32749581337	3.75314
22.03	13.2854480743	13.371		1.30268275738	3.820515
22.13	13.4132595062	13.506		1.26546347141	3.920335
22.23	13.543756485	13.643		1.29027628899	3.85646
22.33	13.6731796265	13.78		1.29422879219	4.023
22.43	13.8090467453	13.919		1.34344696999	3.748195
22.53	13.9440193176	14.059		1.33635759354	3.84094
22.63	14.0820350647	14.2		1.38015270233	3.75223
22.73	14.2213029861	14.341		1.37712192535	3.73175
22.83	14.36647892	14.483		1.43560957909	3.43138
22.93	14.507358551	14.626		1.40700387955	3.550275
23.03	14.6485958099	14.77		1.3966178894	3.512035
23.13	14.7849998474	14.913		1.36404192448	3.8078
23.23	14.9190769196	15.057		1.32749581337	4.230125
23.33	15.0517215729	15.201		1.32466006279	3.752
23.43	15.1811447144	15.345		1.2924387455	4.6999
23.53	15.3127155304	15.489		1.30091035366	4.67594
23.63	15.4407062531	15.633		1.27990806103	5.12344
23.73	15.5708456039	15.776		1.30138897896	5.38449
23.83	15.7054595947	15.919		1.3310406208	5.503675
23.93	15.8429374695	16.061		1.37478232384	5.612815
24.03	15.9854278564	16.202		1.42311453819	5.62368
24.13	16.1314983368	16.343		1.44624388218	5.556945
24.23	16.2818660736	16.483		1.50187814236	5.40141
24.33	16.4325904846	16.622		1.50545835495	5.335455
24.43	16.5865383148	16.759		1.52245521545	5.087155
24.53	16.742275238	16.896		1.55558073521	4.79057
24.63	16.8972969055	17.031		1.53308939934	4.596685
24.73	17.0532131195	17.164		1.55737066269	4.09587
24.83	17.2073383331	17.296		1.53946983814	3.752545
24.93	17.3593158722	17.426		1.48997926712	3.3777
25.03	17.508430481	17.555		1.4893475771	2.973575
25.13	17.6487731934	17.681		1.40342366695	2.82678
25.23	17.7807025909	17.805		1.29166638851	2.71435
25.33	17.9085140228	17.927		1.27632796764	2.49202
25.43	18.0366840363	18.047		1.27990806103	2.10219
25.53	18.1575145721	18.164		1.19634139538	1.999645
25.63	18.2729740143	18.279		1.15281236172	1.87767
25.73	18.3805580139	18.391		1.06518697739	1.901525
25.83	18.4836673737	18.501		1.02087807655	1.876475
25.93	18.5760364532	18.607		0.92189180851	2.23439
26.03	18.6701946259	18.711		0.930487751961	2.06138
26.13	18.76471138	18.811		0.934032440186	1.964315
26.23	18.8499183655	18.908		0.852078616619	2.267405
26.33	18.9279651642	19.002		0.772747993469	2.602425
26.43	19.0042228699	19.093		0.760784506798	2.8999
26.53	19.0803012848	19.179		0.760784506798	2.878535
26.63	19.1578121185	19.263		0.767430841923	2.87244
26.73	19.2362174988	19.342		0.784055531025	2.94885
26.83	19.3142642975	19.417		0.780475497246	2.865475
26.93	19.3939228058	19.489		0.788699150085	2.659345
27.03	19.4741191864	19.556		0.79224383831	2.49108
27.13	19.5528831482	19.619		0.778065025806	2.068755
27.23	19.6278877258	19.678		0.748254001141	2.54688
27.33	19.701997757	19.732		0.741093635559	1.4094
27.43	19.7667980194	19.781		0.641593456268	1.599295
27.53	19.8312416077	19.826		0.644429266453	1.160595
27.63	19.8912086487	19.866		0.599677205086	0.815795
27.73	19.938287735	19.901		0.466130077839	0.816555
27.83	19.9823246002	19.931		0.440359979868	0.451845
27.93	20.0211696625	19.955		0.38460162282	0.130725
28.03	20.0544643402	19.975		0.329658508301	0.130725
28.13	20.0773773193	19.989		0.229130402207	0.130725
28.23	20.0931301117	19.997		0.155967488885	0.375905
28.33	20.0995750427	20.0		0.0644429177046	0.375905
28.43	20.1047668457	20.0		0.051912356168	-1.052015
28.53	20.1206989288	20.0		0.157739818096	-1.88616
28.63	20.1414642334	20.0		0.207649424672	-2.5951
28.73	20.0995769501	20.0		-0.418879002333	-0.330245
28.83	20.0802440643	20.0		-0.191414624453	-0.91322
28.93	20.0385360718	20.0		-0.417088955641	0.213275
29.03	20.0177707672	20.0		-0.207649424672	0.213275
29.13	19.9998703003	20.0		-0.177235767245	0.213275
29.23	19.9893093109	20.0		-0.105614796281	-0.094655
29.33	19.9782104492	20.0		-0.110985040665	0.100705
29.43	19.9701557159	20.0		-0.0797560960054	0.17852
29.53	19.9692611694	20.0		-0.00895040575415	0.038115
29.63	19.9692611694	20.0		0.0	0.07568
29.73	19.9692611694	20.0		0.0	0.14512
29.83	19.9692611694	20.0		0.0	0.21456
29.93	19.9692611694	20.0		0.0	0.284
30.03	19.9692611694	20.0		0.0	0.35344
30.13	19.9692611694	20.0		0.0	0.42288
30.23	19.9692611694	20.0		0.0	0.49232
30.33	19.9692611694	20.0		0.0	0.56176
30.43	19.9692611694	20.0		0.0	0.6312
30.53	19.9692611694	20.0		0.0	0.70064
30.63	19.9692611694	20.0		0.0	0.77008
30.73	19.9672927856	20.0		-0.0196908935905	0.93431
30.83	19.9572677612	20.0		-0.0992520153522	1.41843
30.93	19.9431266785	20.0		-0.141416430473	1.85953
31.03	19.9533309937	20.0		0.0992520153522	1.06701
31.13	19.9653244019	20.0		0.119935445487	0.9223
31.23	19.9789295197	20.0		0.134256094694	0.71967
31.33	19.9916381836	20.0		0.125837385654	0.217665
31.43	19.9977245331	20.0		0.0608627647161	0.88704
31.53	19.9991569519	20.0		0.0141788609326	0.88704
31.63	20.0014839172	20.0		0.0230406485498	0.88704
31.73	20.0036315918	20.0		0.02148097381	0.88704
31.83	20.0064964294	20.0		0.0286413002759	0.88704
31.93	20.0091819763	20.0		0.0265853628516	0.88704
32.03	20.0113296509	20.0		0.02148097381	0.365695
32.13	20.0124034882	20.0		0.0106341466308	0.644285
32.23	20.0124034882	20.0		0.0	0.64928
32.33	20.0124034882	20.0		0.0	0.6224
32.43	20.0124034882	20.0		0.0	0.59552
32.53	20.0124034882	20.0		0.0	0.56864
32.63	20.0124034882	20.0		0.0	0.54176
32.73	20.0124034882	20.0		0.0	0.51488
32.83	20.0124034882	20.0		0.0	0.488
32.93	20.0124034882	20.0		0.0	0.46112
33.03	20.0124034882	20.0		0.0	0.43424
33.13	20.0124034882	20.0		0.0	0.40736
33.23	20.0124034882	20.0		0.0	0.38048
33.33	20.0124034882	20.0		0.0	0.3536
33.43	20.0124034882	19.999		0.0	0.32672
33.53	20.0124034882	19.997		0.0	0.252445
33.63	20.0124034882	19.994		0.0	0.16041
33.73	20.0124034882	19.989		0.0	0.048375
33.83	20.0124034882	19.983		0.0	0.048375
33.93	20.0124034882	19.976		0.0	0.048375
34.03	20.0124034882	19.968		0.0	-0.30784
34.13	20.0134773254	19.958		0.0106341466308	-0.815035
34.23	19.9859104156	19.947		-0.275672525167	0.176755
34.33	19.9637126923	19.935		-0.221970081329	0.0935050000001
34.43	19.9628181458	19.921		-0.00877490825951	0.0935050000001
34.53	19.96210289	19.906		-0.00716032506898	0.0935050000001
34.63	19.9536895752	19.89		-0.0833008140326	-0.70948
34.73	19.941696167	19.873		-0.118747971952	-1.26158
34.83	19.9268379211	19.855		-0.14857673645	-1.34535
34.93	19.9035663605	19.835		-0.232710570097	-1.165585
35.03	19.8785057068	19.814		-0.250611364841	-1.197745
35.13	19.8504009247	19.792		-0.28104275465	-1.07652
35.23	19.8235492706	19.769		-0.265853643417	-1.22258
35.33	19.7990245819	19.745		-0.243451058865	-1.32697
35.43	19.7705631256	19.72		-0.284622907639	-1.26834
35.53	19.7401313782	19.693		-0.301300793886	-1.16971
35.63	19.7127437592	19.665		-0.273882418871	-1.40576
35.73	19.6830291748	19.636		-0.2971534729	-1.35577
35.83	19.65599823	19.606		-0.267626017332	-1.55463
35.93	19.6341590881	19.575		-0.21838991344	-1.91484
36.03	19.5919132233	19.543		-0.422459185123	-1.201215
36.13	19.5598716736	19.51		-0.317252039909	-1.58992
36.23	19.5262184143	19.475		-0.336535304785	-1.580605
36.33	19.4902381897	19.44		-0.356243908405	-1.600925
36.43	19.451751709	19.403		-0.384867459536	-1.524215
36.53	19.4125480652	19.366		-0.392027765512	-1.55193
36.63	19.3724498749	19.327		-0.397008061409	-1.16413
36.73	19.3314571381	19.287		-0.405869871378	-1.48288
36.83	19.2886734009	19.247		-0.427829444408	-1.48288
36.93	19.2469654083	19.205		-0.412959367037	-1.48288
37.03	19.20561409	19.162		-0.409414619207	-1.48288
37.13	19.1656951904	19.118		-0.399188101292	-1.48288
37.23	19.1263141632	19.074		-0.389918655157	-1.48288
37.33	19.0855007172	19.028		-0.408138513565	-2.05162
37.43	19.0425395966	18.981		-0.429619520903	-1.838185
37.53	18.9976081848	18.933		-0.444861769676	-1.87095
37.63	18.9512443542	18.885		-0.4636310637	-1.892675
37.73	18.9055976868	18.835		-0.45195120573	-2.043305
37.83	18.8578033447	18.785		-0.476161628962	-2.08951
37.93	18.8080387115	18.733		-0.4958525002	-2.07728
38.03	18.7566642761	18.681		-0.50866663456	-2.176195
38.13	18.7027835846	18.627		-0.538814425468	-2.10329
38.23	18.6471118927	18.573		-0.554925203323	-2.10329
38.33	18.590007782	18.518		-0.565382003784	-2.12153
38.43	18.5334415436	18.462		-0.563875555992	-2.087895
38.53	18.4743690491	18.405		-0.58893674612	-2.12681
38.63	18.414937973	18.347		-0.580898880959	-2.081975
38.73	18.3562240601	18.289		-0.587146699429	-1.63574
38.83	18.3562240601	18.229		-0.587146699429	-2.01824
38.93	18.2969722748	18.169		-0.590726852417	-5.2411
39.03	18.2273387909	18.108		-0.687674760818	-2.75197
39.13	18.1517982483	18.046		-0.755414247513	-2.53711
39.23	18.0712451935	17.983		-0.797560930252	-2.181415
39.33	17.9921226501	17.92		-0.791215956211	-1.658165
39.43	17.9156856537	17.855		-0.764364778996	-2.45504
39.53	17.8399658203	17.79		-0.74970728159	-1.744115
39.63	17.7663936615	17.724		-0.726666629314	-1.762085
39.73	17.6958637238	17.657		-0.70529204607	-1.80562
39.83	17.6273040771	17.59		-0.678812980652	-1.77561
39.93	17.5616073608	17.521		-0.656959891319	-1.86695
40.03	17.4985961914	17.452		-0.630108594894	-2.02485
40.13	17.4371967316	17.383		-0.60791862011	-2.116085
40.23	17.3752593994	17.312		-0.617578089237	-2.570285
40.33	17.3120689392	17.241		-0.62386995554	-2.09216
40.43	17.2486991882	17.169		-0.633688807487	-2.09216
40.53	17.1867618561	17.096		-0.611463308334	-2.94527
40.63	17.1223182678	17.023		-0.638048768044	-2.791
40.73	17.0537586212	16.949		-0.683811068535	-2.831215
40.83	16.9828720093	16.874		-0.708872139454	-2.883465
40.93	16.9119853973	16.799		-0.70008122921	-3.05358
41.03	16.8387718201	16.723		-0.732143223286	-3.10599
41.13	16.7616195679	16.646		-0.771525025368	-3.084445
41.23	16.6846466064	16.569		-0.760341405869	-3.20368
41.33	16.6037349701	16.491		-0.807326674461	-3.10146
41.43	16.5199584961	16.413		-0.835967898369	-3.02299
41.53	16.438867569	16.334		-0.81090682745	-3.137015
41.63	16.3588504791	16.254		-0.80016630888	-3.243485
41.73	16.2738208771	16.173		-0.841869831085	-3.094385
41.83	16.1893291473	16.093		-0.836552739143	-3.10898
41.93	16.1059112549	16.011		-0.832387804985	-3.130135
42.03	16.0223140717	15.929		-0.827690958977	-3.16009
42.13	15.9363899231	15.846		-0.859239041805	-2.727135
42.23	15.8520774841	15.763		-0.84312826395	-3.07776
42.33	15.7672271729	15.679		-0.840097546577	-3.07776
42.43	15.6821985245	15.595		-0.848498523235	-3.07776
42.53	15.595916748	15.51		-0.861029028893	-3.07776
42.63	15.5101718903	15.425		-0.848959326744	-3.07776
42.73	15.4240694046	15.339		-0.859239041805	-3.07776
42.83	15.336892128	15.253		-0.86136585474	-3.07776
42.93	15.247387886	15.166		-0.884406447411	-3.07776
43.03	15.1580629349	15.079		-0.893250524998	-3.07776
43.13	15.0687379837	14.991		-0.882634043694	-3.07776
43.23	14.9788761139	14.903		-0.889723539352	-2.50902
43.33	14.8884773254	14.814		-0.903991103172	-2.722455
43.43	14.7989730835	14.725		-0.886178731918	-2.78448
43.53	14.7121543884	14.635		-0.866399347782	-2.84567
43.63	14.6210393906	14.546		-0.91115128994	-2.705405
43.73	14.5315351486	14.455		-0.884406447411	-2.70592
