%1-Time(seg)	2-Pos_Encoder	3-x_ref	4-Velo_Encoder(m/s)	5-Torque(N.m)
3.21	0.0	0.0		0.0	0.0
3.31	0.0	0.003		0.0	0.0
3.41	0.0	0.011		0.0	0.0
3.51	0.0	0.026		0.0	0.0
3.61	0.0	0.045		0.0	0.0
3.71	0.0	0.07		0.0	1.17302625
3.81	0.010024455376	0.1		0.100244559348	1.3584305625
3.91	0.0372336916625	0.135		0.269398331642	1.33101550313
4.01	0.0492272377014	0.175		0.119935445487	1.94324772641
4.11	0.0712452381849	0.221		0.220179989934	2.39069597688
4.21	0.0954113379121	0.27		0.241660967469	2.9780926896
4.31	0.136762216687	0.325		0.409414619207	3.19443646032
4.41	0.193865805864	0.384		0.565382003784	3.28079390714
4.51	0.263141959906	0.447		0.690971314907	3.25543675821
4.61	0.343337595463	0.515		0.80016630888	3.1252672912
4.71	0.438032895327	0.587		0.93757712841	2.78903453104
4.81	0.535413324833	0.663		0.972014188766	2.55425628897
4.91	0.643534243107	0.743		1.08120906353	2.09073208004
5.01	0.742346704006	0.827		0.978341460228	1.98880768602
5.11	0.841875195503	0.915		0.993495106697	1.88502670871
5.21	0.943909823895	1.007		1.02034628391	1.71787251892
5.31	1.0427223444	1.102		0.978341460228	1.66989188351
5.41	1.13240540028	1.2		0.896830677986	1.88307084758
5.51	1.22011935711	1.302		0.868455171585	2.09752638141
5.61	1.31016039848	1.407		0.89149582386	2.51542387164
5.71	1.40378165245	1.515		0.934422433376	2.35285274224
5.81	1.47950208187	1.626		0.74970728159	3.19204948401
5.91	1.55003130436	1.74		0.70529204607	4.0679715178
6.01	1.63147997856	1.856		0.812696874142	4.69720643301
6.11	1.72313213348	1.976		0.907447099686	5.16173289486
6.21	1.82427167892	2.098		1.01139593124	5.60915355268
6.31	1.94062697887	2.222		1.1635529995	5.79499934871
6.41	2.06951284409	2.349		1.27432513237	5.85406145692
6.51	2.20681214333	2.478		1.37299239635	5.89488715561
6.61	2.35699987411	2.609		1.48523569107	5.71610297003
6.71	2.50861978531	2.742		1.51440870762	5.60546608651
6.81	2.66596794128	2.877		1.57169127464	5.60546608651
6.91	2.8252851963	3.013		1.57739830017	5.42142173893
7.01	2.8252851963	3.152		1.57739830017	5.22736978252
7.11	2.98603439331	3.292		1.60570287704	8.59652690213
7.21	3.16361045837	3.433		1.77397048473	7.32804160596
7.31	3.35532808304	3.576		1.87783026695	6.27774422268
7.41	3.55581712723	3.72		2.00310087204	5.26586840021
7.51	3.75684332848	3.865		2.00847101212	4.36614353009
7.61	3.95786952972	4.011		1.98858523369	3.45519858854
7.71	4.14403820038	4.157		1.86168456078	2.86975736484
7.81	4.32734251022	4.305		1.83125305176	2.17921456418
7.91	4.5077829361	4.453		1.78653657436	1.44746730388
8.01	4.67658758163	4.602		1.6862565279	0.899204036746
8.11	4.83053445816	4.752		1.50752913952	0.614337566536
8.21	4.96998167038	4.901		1.39447331429	0.578415654941
8.31	5.09457111359	5.051		1.24410653114	0.726445044724
8.41	5.2100315094	5.201		1.13196313381	1.04565402013
8.51	5.31117105484	5.351		1.00960576534	1.65711155906
8.61	5.40729856491	5.501		0.961273610592	2.34534770158
8.71	5.50485801697	5.651		0.956464886665	3.09914046571
8.81	5.60796689987	5.8		1.03108668327	3.57748895957
8.91	5.7014093399	5.949		0.932632386684	4.55164403181
9.01	5.80040073395	6.097		0.980113744736	5.43359431431
9.11	5.91281795502	6.245		1.12238097191	6.04983119144
9.21	6.03955554962	6.392		1.25482928753	6.48764428615
9.31	6.18401527405	6.538		1.42852020264	6.64726567877
9.41	6.34082651138	6.683		1.56811106205	6.63601780545
9.51	6.50891494751	6.826		1.66247141361	6.46695726245
9.61	6.68613290787	6.969		1.77039039135	6.1221802681
9.71	6.87230157852	7.11		1.84147965908	5.61468137065
9.81	7.06026029587	7.25		1.85920321941	5.03449386679
9.91	7.24624967575	7.389		1.85810422897	4.35561574006
10.01	7.42704772949	7.525		1.80798220634	3.93612758303
10.11	7.60265445709	7.66		1.7386828661	3.32403941236
10.21	7.77700853348	7.793		1.74174892902	2.63713098556
10.31	7.92648029327	7.924		1.47991871834	2.4505209435
10.41	8.07756328583	8.053		1.50903844833	1.93577817458
10.51	8.22363376617	8.18		1.4589163065	1.43942892856
10.61	8.36039638519	8.304		1.35408127308	1.06882576785
10.71	8.48767089844	8.426		1.27095770836	0.733806595533
10.81	8.60402584076	8.545		1.16176259518	0.58288846799
10.91	8.71017742157	8.662		1.05100810528	0.529366060595
11.01	8.80523109436	8.776		0.950533092022	0.647574227268
11.11	8.88900661469	8.887		0.837758004665	0.920921902271
11.21	8.96222114563	8.995		0.724894225597	1.36933035602
11.31	9.03454017639	9.1		0.723192811012	1.72488041021
11.41	9.11026096344	9.201		0.755414247513	2.26469418459
11.51	9.18669700623	9.3		0.756796658039	2.17130188307
11.61	9.25239276886	9.395		0.655169725418	2.78737234738
11.71	9.31844711304	9.486		0.653999865055	3.28362780632
11.81	9.3932723999	9.574		0.740845561028	3.51047651284
11.91	9.47114086151	9.658		0.776895225048	3.70730693078
12.01	9.55545330048	9.738		0.833008110523	3.74746411885
12.11	9.64477825165	9.814		0.891460478306	3.63175835348
12.21	9.74251651764	9.886		0.975594222546	3.29609975907
12.31	9.83524227142	9.954		0.916308879852	3.09686789158
12.41	9.93602371216	10.017		1.00602567196	2.56045130121
12.51	10.0287494659	10.076		0.927262127399	2.13775358555
12.61	10.1189699173	10.13		0.89149582386	1.6506083635
12.71	10.1966590881	10.18		0.776895225048	1.29627176357
12.81	10.2691574097	10.225		0.717804789543	0.901546793608
12.91	10.3441619873	10.265		0.750044047832	0.217942557124
13.01	10.4105739594	10.3		0.662330031395	0.217942557124
13.11	10.4617700577	10.33		0.506894230843	0.217942557124
13.21	10.5084915161	10.355		0.465421140194	-1.47907195886
13.31	10.530330658	10.375		0.21838991344	-1.46122063149
13.41	10.5405340195	10.389		0.101024389267	-1.48677603417
13.51	10.5097446442	10.397		-0.307893961668	-0.687542965376
13.61	10.4879055023	10.4		-0.21838991344	-0.483848834419
13.71	10.4399309158	10.4		-0.474991887808	0.299193774511
13.81	10.4359931946	10.4		-0.0393817871809	0.299193774511
13.91	10.4342031479	10.4		-0.0179008115083	0.299193774511
14.01	10.4308023453	10.4		-0.0336747914553	-0.594282139798
14.11	10.4191665649	10.4		-0.116355285048	-0.428675962909
14.21	10.4077100754	10.4		-0.113430887461	-0.092658433309
14.31	10.3930311203	10.4		-0.145333334804	-0.274544294989
14.41	10.3862285614	10.4		-0.0680230855942	0.00854856725498
14.51	10.3801422119	10.4		-0.0602601617575	0.0641543552647
14.61	10.3799629211	10.4		-0.00179008126725	0.00862945986914
14.71	10.3799629211	10.4		0.0	0.00828325694113
14.81	10.3799629211	10.4		0.0	0.0327674656235
14.91	10.379067421	10.4		-0.00895040575415	0.0944926095306
15.01	10.379067421	10.4		0.0	0.130609674289
15.11	10.379067421	10.4		0.0	0.17273435343
15.21	10.379067421	10.4		0.0	0.217562459044
15.31	10.379067421	10.4		0.0	0.26360710657
15.41	10.3781719208	10.4		-0.00886178854853	0.336266447956
15.51	10.3781719208	10.4		0.0	0.37853590158
15.61	10.3770980835	10.4		-0.0106341466308	0.450728405711
15.71	10.3770980835	10.4		0.0	0.49401978257
15.81	10.3762025833	10.4		-0.00895040575415	0.567904152157
15.91	10.3754863739	10.4		-0.00708943046629	0.63925611847
16.01	10.3747701645	10.4		-0.00716032506898	0.684633253312
16.11	10.3740539551	10.4		-0.00716032506898	0.76192021399
16.21	10.3710107803	10.4		-0.0301300808787	0.889401846296
16.31	10.3633136749	10.4		-0.076973490417	1.13844083083
16.41	10.352394104	10.4		-0.10919495672	1.44258212387
16.51	10.380856514	10.4		0.281804889441	0.689787705744
16.61	10.3855104446	10.4		0.0465421117842	0.752508217585
16.71	10.3939237595	10.4		0.0841338261962	0.520695197913
16.81	10.4005470276	10.4		0.065577223897	0.661816839061
16.91	10.4025163651	10.4		0.0194959361106	0.725321577577
17.01	10.4032325745	10.4		0.00708943046629	0.75389870991
17.11	10.4198799133	10.4		0.166477560997	0.245413419459
17.21	10.4313364029	10.4		0.114565201104	0.0558402887568
17.31	10.4427928925	10.4		0.113430887461	0.0558402887568
17.41	10.4458360672	10.4		0.0304313823581	0.0558402887568
17.51	10.446015358	10.4		0.00179008126725	-0.235724818687
17.61	10.4517440796	10.4		0.0567154437304	-0.456783668409
17.71	10.4664230347	10.4		0.146786674857	-0.880078150784
17.81	10.4782371521	10.4		0.118145368993	-1.21924216785
17.91	10.4580087662	10.4		-0.20027641952	-0.736241975534
18.01	10.443151474	10.4		-0.14857673645	-0.54996413899
18.11	10.4197015762	10.4		-0.232178866863	-0.182537112546
18.21	10.3962516785	10.4		-0.23450063169	0.0762912993545
18.31	10.3864059448	10.4		-0.0974796637893	0.20708058471
18.41	10.3853321075	10.4		-0.0106341466308	0.0638135131194
18.51	10.3847951889	10.4		-0.00537024345249	0.00029208090375
18.61	10.383184433	10.4		-0.0161107294261	0.0423219364067
18.71	10.3826475143	10.4		-0.00531707331538	0.0471168713831
18.81	10.3822898865	10.4		-0.00358016253449	0.0962858421224
18.91	10.3812160492	10.4		-0.010740486905	0.149123878955
19.01	10.3812160492	10.4		0.0	0.17877774553
19.11	10.3812160492	10.4		0.0	0.215529985488
19.21	10.3796052933	10.4		-0.0161107294261	0.28154374347
19.31	10.3790683746	10.4		-0.00531707331538	0.344425934561
19.41	10.3779945374	10.4		-0.0106341466308	0.407130920553
19.51	10.3774576187	10.4		-0.00531707331538	0.470988164249
19.61	10.3770999908	10.4		-0.00358016253449	0.510528673912
19.71	10.3763837814	10.4		-0.00716032506898	0.58272515326
19.81	10.3763837814	10.4		0.0	0.627250318967
19.91	10.3763837814	10.4		0.0	0.676854643535
20.01	10.3760261536	10.4		-0.00358016253449	0.728744589591
20.11	10.3733406067	10.4		-0.0265853628516	0.859864815316
20.21	10.3649272919	10.4		-0.0841338261962	1.10807716689
20.31	10.3527545929	10.4		-0.121725529432	1.4354497251
20.41	10.3364648819	10.4		-0.161284536123	1.8734396263
20.51	10.352396965	10.4		0.159317225218	1.43427583183
20.61	10.3722667694	10.4		0.196908935905	1.05494312432
20.71	10.3996553421	10.4		0.271170705557	0.539481405946
20.81	10.4214944839	10.4		0.21838991344	0.250986382676
20.91	10.4338464737	10.4		0.122292682528	0.124573622204
21.01	10.4445867538	10.4		0.107404880226	0.124573622204
21.11	10.4453029633	10.4		0.00716032506898	0.124573622204
21.21	10.445482254	10.4		0.00177235761657	0.00792309194844
21.31	10.445482254	10.4		0.0	0.00792309194844
21.41	10.4456615448	10.4		0.00179008126725	0.00792309194844
21.51	10.4472723007	10.4		0.0159512199461	-0.286065140746
21.61	10.4492416382	10.4		0.0196908935905	-0.430519813336
21.71	10.4637413025	10.4		0.144996598363	-0.911838666001
21.81	10.4785985947	10.4		0.147105693817	-0.911838666001
21.91	10.4662466049	10.4		-0.122292682528	-1.3353201497
22.01	10.4474506378	10.4		-0.186097562313	-1.02137181737
22.11	10.4474506378	10.4		-0.186097562313	-0.694035567814
22.21	10.4247169495	10.4		-0.227340310812	-0.364252505516
22.31	10.3992977142	10.4		-0.254191547632	0.0193436225177
22.41	10.3880205154	10.4		-0.111658535898	0.066487630133
22.51	10.3871250153	10.4		-0.00895040575415	0.066487630133
22.61	10.3840818405	10.4		-0.0304313823581	-0.071873842398
22.71	10.3760261536	10.4		-0.0797560960054	0.108258770921
22.81	10.3667173386	10.4		-0.0912941396236	0.313241696914
22.91	10.3660011292	10.4		-0.00716032506898	0.314426013612
23.01	10.3656435013	10.4		-0.00354471523315	0.339315706125
23.11	10.3656435013	10.4		0.0	0.392404067756
23.21	10.3656435013	10.4		0.0	0.45818183049
23.31	10.3651065826	10.403		-0.00531707331538	0.555737073721
23.41	10.3651065826	10.411		0.0	0.703427433174
23.51	10.3651065826	10.426		0.0	0.972648344929
23.61	10.3790693283	10.445		0.138243898749	1.03628700522
23.71	10.4018030167	10.47		0.225550234318	1.00102815235
23.81	10.4195251465	10.5		0.175463393331	1.29073341856
23.91	10.4329509735	10.535		0.134256094694	1.80312528835
24.01	10.4479875565	10.575		0.150366812944	2.33955937976
24.11	10.4796724319	10.62		0.313707321882	2.54605172089
24.21	10.5127887726	10.669		0.329374939203	2.9285702744
24.31	10.558257103	10.723		0.452890574932	3.12642162348
24.41	10.6150026321	10.782		0.561837315559	3.20387998057
24.51	10.6819515228	10.845		0.661089420319	3.21584799125
24.61	10.7546291351	10.912		0.726773023605	3.22401109606
24.71	10.8342876434	10.984		0.786926865578	3.20106999323
24.81	10.9187793732	11.059		0.834780395031	3.15834324695
24.91	11.0041666031	11.139		0.84541451931	3.18642996113
25.01	11.0927753448	11.222		0.884300112724	3.20753623251
25.11	11.182100296	11.309		0.891460478306	3.27508380463
25.21	11.2680244446	11.399		0.848959326744	3.48601496208
25.31	11.3566331863	11.493		0.884300112724	3.63998198294
25.41	11.4541921616	11.59		0.975594222546	3.66527814232
25.51	11.5463809967	11.691		0.91099178791	3.90763941404
25.61	11.6448354721	11.794		0.984544754028	4.03538823632
25.71	11.7484807968	11.901		1.03466689587	4.11448470634
25.81	11.8544540405	12.01		1.04923558235	4.23281736785
25.91	11.9645442963	12.122		1.10089993477	4.27430531553
26.01	12.0758876801	12.237		1.10240638256	4.40954464199
26.11	12.1949281693	12.355		1.1886138916	4.4052740889
26.21	12.3155794144	12.474		1.20472466946	4.44701959
26.31	12.4389162064	12.597		1.21938204765	4.4621778155
26.41	12.5631475449	12.721		1.24231624603	4.55617676698
26.51	12.6888113022	12.847		1.25663709641	4.60576104514
26.61	12.8141174316	12.976		1.23887789249	4.72862772031
26.71	12.9433612823	13.106		1.2906485796	4.80704247414
26.81	13.0743951797	13.238		1.30854940414	4.85691786336
26.91	13.2120523453	13.371		1.3478256464	4.77991353851
27.01	13.351858139	13.506		1.39805352688	4.70001034233
27.11	13.4948854446	13.643		1.43027484417	4.60164265405
27.21	13.6370182037	13.78		1.40547955036	4.42443944432
27.31	13.7782554626	13.919		1.41058409214	4.53754174995
27.41	13.918598175	14.059		1.38952839375	4.58843778748
27.51	14.0584039688	14.2		1.39805352688	4.61134100436
27.61	14.2012519836	14.341		1.42669475079	4.62164745196
27.71	14.3419523239	14.483		1.39130079746	4.62628535338
27.81	14.4837265015	14.626		1.41595435143	4.62837240902
27.91	14.6222791672	14.77		1.38373291492	4.62931158406
28.01	14.7653064728	14.913		1.41434144974	4.62973421283
28.11	14.9056491852	15.057		1.40163362026	4.62992439577
28.21	15.0454549789	15.201		1.39626336098	4.9428169781
28.31	15.190451622	15.345		1.43383717537	4.86196039014
28.41	15.334195137	15.489		1.43564510345	4.85665817556
28.51	15.4809818268	15.633		1.43732988834	4.581084429
28.61	15.6241884232	15.776		1.43027484417	4.64991999305
28.71	15.7709751129	15.919		1.46607649326	4.68089599687
28.81	15.9218788147	16.061		1.47769463062	4.69483519859
28.91	16.0720672607	16.202		1.50008809566	4.41436808937
29.01	16.2301311493	16.343		1.57885169983	4.02430639022
29.11	16.3896274567	16.483		1.57739830017	3.6170361256
29.21	16.5519886017	16.622		1.6218136549	3.13547475652
29.31	16.7064723969	16.759		1.54484009743	2.82844289043
29.41	16.8482475281	16.896		1.40193498135	2.7194230507
29.51	16.9794597626	17.031		1.29913818836	2.80477587281
29.61	17.1092414856	17.164		1.28495931625	2.76607739277
29.71	17.2365169525	17.296		1.27274775505	2.69524707674
29.81	17.3562736511	17.426		1.19577431679	2.82465543454
29.91	17.4753131866	17.555		1.17684555054	2.86780269554
30.01	17.5934581757	17.681		1.17966353893	2.92074696299
30.11	17.712677002	17.805		1.19219410419	2.86131563335
30.21	17.8286743164	17.927		1.14848768711	2.89849803501
30.31	17.9512939453	18.047		1.2244155407	2.74541211575
30.41	18.0689029694	18.164		1.17429339886	2.69908995209
30.51	18.1925983429	18.279		1.22469902039	2.43360772844
30.61	18.311460495	18.391		1.1886138916	2.3229297278
30.71	18.4208335876	18.501		1.09373962879	2.33842887751
30.81	18.5264492035	18.607		1.04391849041	2.40371724488
30.91	18.6365394592	18.711		1.10089993477	2.1843045102
31.01	18.746629715	18.811		1.08999991417	1.97986152959
31.11	18.8432941437	18.908		0.966643869877	2.05296668831
31.21	18.935125351	19.002		0.918311715126	2.10665125974
31.31	19.0181846619	19.093		0.820601582527	2.29662881688
31.41	19.0989170074	19.179		0.807326674461	2.5866389676
31.51	19.1782169342	19.263		0.793005943298	2.43664353542
31.61	19.2535800934	19.342		0.737092316151	2.36914559094
31.71	19.3269729614	19.417		0.733933329582	2.72978026592
31.81	19.399471283	19.489		0.724982976913	2.72577886967
31.91	19.4744758606	19.556		0.733582317829	2.61535874135
32.01	19.5473327637	19.619		0.728563010693	2.24573468361
32.11	19.6182193756	19.677		0.701853573322	2.34237260762
32.21	19.6900024414	19.732		0.717822551727	2.04698542343
32.31	19.7601737976	19.781		0.699921786785	1.73494269054
32.41	19.8262271881	19.826		0.647588193417	1.37985296074
32.51	19.8865528107	19.866		0.603257417679	1.04557783234
32.61	19.9390029907	19.901		0.52449375391	0.787695024551
32.71	19.9841136932	19.931		0.446634143591	0.531414261048
32.81	20.0252857208	19.955		0.411718666553	0.202404667472
32.91	20.0641307831	19.975		0.386657565832	0.202404667472
33.01	20.0950984955	19.989		0.306617856026	0.202404667472
33.11	20.1180114746	19.997		0.226861774921	-1.04384834905
33.21	20.1301841736	20.0		0.121725529432	-1.25626475707
33.31	20.1391353607	20.0		0.0886178836226	-1.60198664068
33.41	20.1108512878	20.0		-0.282832860947	-1.09373898831
33.51	20.0741539001	20.0		-0.363333314657	-0.528166294738
33.61	20.0387096405	20.0		-0.352646023035	-0.101129082632
33.71	20.0125751495	20.0		-0.261351853609	0.107144412816
33.81	19.9989700317	20.0		-0.134699165821	0.0679132357671
33.91	19.9844703674	20.0		-0.144996598363	0.239428956095
34.01	19.9798164368	20.0		-0.0465421117842	0.160092030243
34.11	19.9794578552	20.0		-0.00354471523315	0.104972663609
34.21	19.9794578552	20.0		0.0	0.0885096986243
34.31	19.9794578552	20.0		0.0	0.106973364381
34.41	19.9794578552	20.0		0.0	0.141154013972
34.51	19.9794578552	20.0		0.0	0.182407306287
34.61	19.9794578552	20.0		0.0	0.226843287829
34.71	19.9794578552	20.0		0.0	0.272711479523
34.81	19.9794578552	20.0		0.0	0.319224165786
34.91	19.9794578552	20.0		0.0	0.366026874604
35.01	19.9794578552	20.0		0.0	0.412960093572
35.11	19.9794578552	20.0		0.0	0.459952042107
35.21	19.9794578552	20.0		0.0	0.506970418948
35.31	19.9794578552	20.0		0.0	0.554000688527
35.41	19.9794578552	20.0		0.0	0.601036309837
35.51	19.9794578552	20.0		0.0	0.648074339427
35.61	19.9794578552	20.0		0.0	0.695113452742
35.71	19.9794578552	20.0		0.0	0.742153053734
35.81	19.9785633087	20.0		-0.00886178854853	0.78919287418
35.91	19.9697914124	20.0		-0.0877139791846	1.07083804338
36.01	19.9585132599	20.0		-0.112775117159	1.36349686952
36.11	19.9441928864	20.0		-0.141788616776	1.74387034128
36.21	19.9556503296	20.0		0.114565201104	1.40825465358
36.31	19.9785633087	20.0		0.226861774921	0.92226384411
36.41	19.9939575195	20.0		0.153946980834	0.58524647985
36.51	20.0030860901	20.0		0.0912941396236	0.801744915932
36.61	20.0086345673	20.0		0.0544044338167	0.89916921217
36.71	20.0159740448	20.0		0.0733933374286	0.525934145476
36.81	20.02277565	20.0		0.0680230855942	0.436295615464
36.91	20.0286827087	20.0		0.05791439116	0.436295615464
37.01	20.0333366394	20.0		0.0465421117842	0.333937526959
37.11	20.0333366394	20.0		0.0465421117842	0.253066887132
37.21	20.0392436981	20.0		0.0590726844966	0.0897405992093
37.31	20.0444355011	20.0		0.051398370415	0.0897405992093
37.41	20.0473003387	20.0		0.0286413002759	-0.16771859116
37.51	20.0473003387	20.0		0.0	-0.222873366022
37.61	20.0537452698	20.0		0.0638048797846	-0.48806776471
37.71	20.031370163	20.0		-0.223760157824	0.0483322558807
37.81	20.0188388824	20.0		-0.124065026641	0.161108515146
37.91	20.0188388824	20.0		0.0	0.161108515146
38.01	20.0188388824	20.0		0.0	-0.127698325683
38.11	20.0188388824	20.0		0.0	-0.198704246557
38.21	20.0100669861	20.0		-0.0877139791846	-0.0194596609507
38.31	19.9891223907	20.0		-0.209439501166	0.438511402572
38.41	19.9826774597	20.0		-0.0638048797846	0.446397631158
38.51	19.9823188782	20.0		-0.00354471523315	0.391770184021
38.61	19.9823188782	20.0		0.0	0.37183258281
38.71	19.9810657501	20.0		-0.012406501919	0.411103912264
38.81	19.9799919128	20.0		-0.010740486905	0.460720010519
38.91	19.9799919128	20.0		0.0	0.490156004734
39.01	19.9799919128	20.0		0.0	0.52804220213
39.11	19.9792766571	20.0		-0.00716032506898	0.595798240959
39.21	19.9790973663	20.0		-0.00177235761657	0.634629208431
39.31	19.978559494	20.0		-0.00537024345249	0.677975143794
39.41	19.9778442383	20.0		-0.00708943046629	0.749420064707
39.51	19.9740848541	20.0		-0.0372195132077	0.895412029118
39.61	19.9617328644	20.0		-0.122292682528	1.2358224131
