%1-Time(seg)	2-Pos_Encoder	3-x_ref	4-Velo_Encoder(m/s)	5-Torque(N.m)
3.33	0.0	0.0		0.0	0.0
3.43	0.0	0.003		0.0	0.0
3.53	0.0	0.011		0.0	0.0
3.63	0.0	0.026		0.0	0.521345
3.73	0.0	0.045		0.0	0.906285
3.83	0.000895040633623	0.07		0.00895040575415	1.33951
3.93	0.0155737083405	0.1		0.146786674857	1.33827
4.03	0.0400978252292	0.135		0.24281296134	1.42485
4.13	0.0587146729231	0.175		0.186168447137	2.12632
4.23	0.0708872228861	0.221		0.121725529432	3.11362
4.33	0.0896830782294	0.27		0.186097562313	3.733745
4.43	0.127095773816	0.325		0.37412700057	3.7353
4.53	0.179545164108	0.384		0.519300758839	3.76791
4.63	0.24166098237	0.447		0.615008115768	3.886775
4.73	0.31183218956	0.515		0.699921786785	3.968715
4.83	0.388268649578	0.587		0.756796658039	4.11508
4.93	0.470075368881	0.663		0.818067193031	4.18061
5.03	0.557968378067	0.743		0.878929972649	4.1927
5.13	0.64962053299	0.827		0.905674695969	4.24166
5.23	0.746284902096	0.915		0.966643869877	4.26374
5.33	0.845813393593	1.007		0.995285153389	4.25894
5.43	0.946952998638	1.102		1.0013821125	4.369445
5.53	1.05507385731	1.2		1.07941901684	4.174585
5.63	1.16265773773	1.302		1.07404875755	4.22029
5.73	1.2722107172	1.407		1.08468282223	4.290155
5.83	1.38373279572	1.515		1.11343050003	4.248715
5.93	1.49400186539	1.626		1.08999991417	4.42857
6.03	1.6065980196	1.74		1.1241710186	4.44457
6.13	1.71865713596	1.856		1.12059092522	4.64567
6.23	1.83411741257	1.976		1.14317071438	4.676355
6.33	1.94957768917	2.098		1.15281236172	4.88334
6.43	2.07076621056	2.222		1.21009492874	4.861475
6.53	2.19249176979	2.349		1.20520317554	5.032265
6.63	2.31905055046	2.478		1.26558756828	5.00384
6.73	2.44650435448	2.609		1.27274775505	5.118435
6.83	2.57950735092	2.742		1.3168617487	5.06121
6.93	2.71573257446	2.877		1.36046171188	5.047735
7.03	2.85571694374	3.013		1.38598370552	4.964625
7.13	2.99605941772	3.152		1.40342366695	4.964625
7.23	3.13854980469	3.292		1.4107966423	4.98146
7.33	3.281219244	3.433		1.4107966423	4.95746
7.43	3.281219244	3.576		1.4107966423	5.01929
7.53	3.42442584038	3.72		1.43206501007	11.790375
7.63	3.57980489731	3.865		1.55200052261	7.06774
7.73	3.74502944946	4.011		1.63411355019	6.81594
7.83	3.91777229309	4.157		1.72742855549	6.442575
7.93	4.0937371254	4.305		1.7578599453	6.08967
8.03	4.27113437653	4.453		1.75463414192	5.812585
8.13	4.44978427887	4.602		1.78471112251	5.20169
8.23	4.62753915787	4.752		1.77576065063	5.05317
8.33	4.80243015289	4.901		1.71286201477	4.6862
8.43	4.97660493851	5.051		1.73995888233	4.10693
8.53	5.14845275879	5.201		1.7014632225	3.770145
8.63	5.31331920624	5.351		1.64687466621	3.511315
8.73	5.47156238556	5.501		1.58064174652	3.312005
8.83	5.62497234344	5.651		1.51891040802	3.185655
8.93	5.77408599854	5.8		1.4893475771	3.050915
9.03	5.91926145554	5.949		1.44996595383	2.9331
9.13	6.05763483047	6.097		1.36826014519	3.01299
9.23	6.19368124008	6.245		1.36046171188	3.01882
9.33	6.32722139359	6.392		1.33540070057	3.129965
9.43	6.45628643036	6.538		1.27609753609	3.32127
9.53	6.57980203629	6.683		1.23336601257	3.64685
9.63	6.69973754883	6.826		1.1857073307	4.036395
9.73	6.8194937706	6.969		1.1857073307	4.007155
9.83	6.93549108505	7.11		1.158182621	5.07671
9.93	7.0557847023	7.25		1.18925189972	5.01702
10.03	7.17589902878	7.389		1.20114457607	5.44838
10.13	7.29780340195	7.525		1.21725523472	5.782355
10.23	7.42382526398	7.66		1.24596738815	5.91827
10.33	7.55038404465	7.793		1.26558756828	6.252315
10.43	7.6848192215	7.924		1.34256088734	6.11705
10.53	7.81567430496	8.053		1.29382109642	6.42272
10.63	7.9493932724	8.18		1.33540070057	6.47506
10.73	8.06807613373	8.304		1.1733007431	7.21468
10.83	8.18371582031	8.426		1.15460240841	7.58972
10.93	8.30042934418	8.545		1.16713285446	7.88789
11.03	8.41982746124	8.662		1.18216252327	7.931485
11.13	8.541015625	8.776		1.21009492874	8.05378
11.23	8.66345691681	8.887		1.222625494	8.07316
11.33	8.78965759277	8.995		1.24773991108	7.82296
11.43	8.92015457153	9.1		1.30317914486	7.50755
11.53	9.05244159698	9.201		1.32107996941	7.097135
11.63	9.17971611023	9.3		1.26014637947	6.785615
11.73	9.30197906494	9.395		1.222625494	6.697985
11.83	9.42119884491	9.486		1.19040417671	6.13509
11.93	9.53540611267	9.574		1.12899184227	5.815515
12.03	9.63958930969	9.658		1.04182732105	5.633165
12.13	9.73732757568	9.738		0.965934872627	5.411065
12.23	9.82826328278	9.814		0.900357604027	5.127135
12.33	9.91239738464	9.886		0.841338157654	4.897
12.43	9.99259281158	9.954		0.79224383831	4.505925
12.53	10.0659856796	10.017		0.733933329582	4.316145
12.63	10.1327552795	10.076		0.665910243988	4.03506
12.73	10.1925439835	10.13		0.586163878441	3.855325
12.83	10.251616478	10.18		0.590726852417	3.388145
12.93	10.3012018204	10.225		0.4958525002	3.321635
13.03	10.3450584412	10.265		0.432455211878	3.066115
13.13	10.3810386658	10.3		0.359806329012	2.95502
13.23	10.414691925	10.33		0.33320325613	2.615075
13.33	10.4429750443	10.355		0.282832860947	2.42039
13.43	10.4565792084	10.375		0.134699165821	2.624865
13.53	10.4748382568	10.389		0.180780485272	2.14055
13.63	10.4843254089	10.397		0.0948743075132	2.089775
13.73	10.4957818985	10.4		0.114565201104	1.52802
13.83	10.5041952133	10.4		0.0815284624696	1.196785
13.93	10.5093860626	10.4		0.051912356168	0.886225
14.03	10.5169048309	10.4		0.0751834064722	0.42228
14.13	10.5063428879	10.4		-0.104569092393	0.936545
14.23	10.4956026077	10.4		-0.107404880226	0.82243
14.33	10.4882631302	10.4		-0.0733933374286	0.6678
14.43	10.4785966873	10.4		-0.0957073122263	0.642235
14.53	10.4714365005	10.4		-0.0708943083882	0.55756
14.63	10.4689302444	10.4		-0.0248130038381	0.23831
14.73	10.4689302444	10.4		0.0	0.02
14.83	10.4689302444	10.4		0.0	0.02
14.93	10.4689302444	10.4		0.0	0.02
15.03	10.4687509537	10.4		-0.00179008126725	-0.44368
15.13	10.4674978256	10.4		-0.0125305699185	-0.50345
15.23	10.4512081146	10.4		-0.159703329206	0.04104
15.33	10.4451217651	10.4		-0.0608627647161	0.04104
15.43	10.4447641373	10.4		-0.00358016253449	0.04104
15.53	10.4427947998	10.4		-0.0194959361106	-0.59689
15.63	10.4290113449	10.4		-0.137836262584	-0.09343
15.73	10.4121847153	10.4		-0.168267652392	0.201075
15.83	10.4052038193	10.4		-0.0691219493747	0.20106
15.93	10.4028768539	10.4		-0.0232710558921	0.20106
16.03	10.3946428299	10.4		-0.0815284624696	0.20106
16.13	10.3835439682	10.4		-0.110985040665	0.57688
16.23	10.3781738281	10.4		-0.0537024401128	0.38709
16.33	10.3699398041	10.4		-0.080729149282	0.62428
16.43	10.3627796173	10.4		-0.0716032460332	0.768245
16.53	10.3543663025	10.4		-0.0841338261962	1.054555
16.63	10.3457736969	10.4		-0.0850731730461	1.24988
16.73	10.3412981033	10.4		-0.0447520315647	1.352815
16.83	10.3319892883	10.4		-0.0930842235684	1.752155
16.93	10.3246498108	10.4		-0.0726666674018	1.949365
17.03	10.3169527054	10.4		-0.076973490417	2.2734
17.13	10.3282299042	10.4		0.111658535898	1.682975
17.23	10.3373594284	10.4		0.0912941396236	1.768325
17.33	10.3452358246	10.4		0.0779837444425	1.81716
17.43	10.3516798019	10.4		0.0638048797846	1.863595
17.53	10.3577661514	10.4		0.0608627647161	1.90987
17.63	10.3658218384	10.4		0.0805536583066	1.81604
17.73	10.3726243973	10.4		0.0673495829105	1.815435
17.83	10.3803215027	10.4		0.076973490417	1.767275
17.93	10.3860502243	10.4		0.0572826005518	1.75083
18.03	10.3917789459	10.4		0.0567154437304	1.30991
18.13	10.3989391327	10.4		0.0716032460332	1.75616
18.23	10.4114694595	10.4		0.125305682421	1.234815
18.33	10.4225683212	10.4		0.109886169434	0.99206
18.43	10.4284753799	10.403		0.0590726844966	1.086065
18.53	10.439037323	10.411		0.104569092393	0.80356
18.63	10.4451236725	10.426		0.0608627647161	1.07271
18.73	10.4540739059	10.445		0.0886178836226	1.21717
18.83	10.4639196396	10.47		0.0974796637893	1.389755
18.93	10.4746599197	10.5		0.107404880226	1.960825
19.03	10.4816408157	10.535		0.069813169539	2.20831
19.13	10.4877271652	10.575		0.0602601617575	3.049335
19.23	10.4956035614	10.62		0.0787635743618	3.74688
19.33	10.504196167	10.669		0.0859238952398	4.657455
19.43	10.5136833191	10.723		0.0939349606633	5.586325
19.53	10.5272874832	10.782		0.136046171188	6.633595
19.63	10.5417871475	10.845		0.144996598363	7.85114
19.73	10.5543174744	10.912		0.124065026641	9.403385
19.83	10.5638046265	10.984		0.0948743075132	11.131115
19.93	10.5675640106	11.059		0.0372195132077	13.31662
20.03	10.5706071854	11.139		0.0301300808787	15.4934
20.13	10.5729341507	11.222		0.0232710558921	17.98833
20.23	10.5759773254	11.309		0.0301300808787	20.56152
20.33	10.5793781281	11.399		0.0340115427971	23.43974
20.43	10.5813474655	11.493		0.0196908935905	26.5682
20.53	10.5843906403	11.59		0.0301300808787	29.908465
20.63	10.5879707336	11.691		0.0358016230166	33.451735
20.73	10.5910139084	11.794		0.0304313823581	37.37655
20.83	10.5951309204	11.901		0.0407642312348	41.408905
20.93	10.5974578857	12.01		0.0232710558921	45.915515
21.03	10.5994272232	12.122		0.0194959361106	50.560865
21.13	10.6017541885	12.237		0.0232710558921	53.362375
21.23	10.6053342819	12.355		0.0358016230166	53.362375
21.33	10.6071243286	12.475		0.0177235770971	55.0708
21.43	10.6098098755	12.597		0.0268512200564	56.8687
21.53	10.6121368408	12.721		0.0230406485498	64.230925
21.63	10.6150007248	12.847		0.0265853628516	62.25835
21.73	10.6150007248	12.976		0.0265853628516	64.061425
21.83	10.6175069809	13.106		0.0250611398369	65.97145
21.93	10.6198339462	13.238		0.0232710558921	67.8784
22.03	10.6237716675	13.371		0.0389918722212	69.7216
22.13	10.6275310516	13.506		0.0375917032361	71.611075
22.23	10.6316480637	13.643		0.0411718674004	73.561225
22.33	10.635228157	13.78		0.035099633038	75.58645
22.43	10.6382713318	13.919		0.0304313823581	77.51605
22.53	10.6414937973	14.059		0.0319024398923	79.5382
22.63	10.644536972	14.2		0.0304313823581	81.4966
22.73	10.6481170654	14.341		0.0358016230166	83.54755
22.83	10.6508026123	14.483		0.0265853628516	85.53475
22.93	10.6542034149	14.626		0.0336747914553	87.568225
23.03	10.6568889618	14.77		0.0268512200564	89.6161
23.13	10.6599321365	14.913		0.0301300808787	91.678375
23.23	10.661901474	15.057		0.0196908935905	93.708775
23.33	10.6638708115	15.201		0.0196908935905	95.78545
23.43	10.6656608582	15.345		0.0177235770971	97.83025
23.53	10.6679878235	15.489		0.0232710558921	99.87505
23.63	10.6704940796	15.633		0.0250611398369	101.91985
23.73	10.6724634171	15.776		0.0196908935905	103.96465
23.83	10.6746110916	15.919		0.02148097381	105.9169
23.93	10.6764011383	16.061		0.0177235770971	108.02545
24.03	10.6783704758	16.202		0.0196908935905	109.9777
24.13	10.6808767319	16.343		0.0250611398369	111.90115
24.23	10.6824874878	16.483		0.0159512199461	113.9809
24.33	10.6853513718	16.622		0.0286413002759	115.858075
24.43	10.6869621277	16.759		0.0159512199461	117.830875
24.53	10.6887521744	16.896		0.0177235770971	119.711125
24.63	10.6914377213	17.031		0.0268512200564	121.655125
24.73	10.6928701401	17.164		0.014320650138	123.506575
24.83	10.6962709427	17.296		0.0336747914553	125.28295
24.93	10.6982402802	17.426		0.0196908935905	127.15495
25.03	10.699672699	17.555		0.0141788609326	128.9344
25.13	10.7019996643	17.681		0.0232710558921	130.731325
25.23	10.703789711	17.805		0.0179008115083	132.4213
25.33	10.7045059204	17.927		0.00708943046629	134.160625
25.43	10.7057590485	18.047		0.0125305699185	135.839275
25.53	10.7077283859	18.164		0.0196908935905	137.44285
25.63	10.7098760605	18.279		0.0212682932615	139.003225
25.73	10.7134561539	18.391		0.0354471541941	140.5204
25.83	10.7154254913	18.501		0.0196908935905	142.04065
25.93	10.7184686661	18.607		0.0301300808787	143.485825
26.03	10.7234811783	18.711		0.0501222796738	144.748975
26.13	10.7315368652	18.811		0.0805536583066	145.925725
26.23	10.7435302734	18.908		0.118747971952	146.9698
26.33	10.7610731125	19.002		0.175427958369	147.8668
26.43	10.7854185104	19.093		0.24104064703	148.55605
26.53	10.8199672699	19.179		0.345485657454	148.9162
26.63	10.8575592041	19.263		0.375917077065	149.3524
26.73	10.9014158249	19.342		0.434227585793	149.719675
26.83	10.9497480392	19.417		0.47853654623	149.80105
26.93	11.0036296844	19.489		0.538814425468	149.816575
27.03	11.0686092377	19.556		0.643365859985	149.471125
27.13	11.137348175	19.619		0.687391161919	149.201725
27.23	11.2121734619	19.677		0.746463835239	148.6783
27.33	11.2938013077	19.732		0.806422770023	147.9502
27.43	11.3829469681	19.781		0.880861759186	147.14185
27.53	11.4763889313	19.826		0.932632386684	146.1895
27.63	11.5753803253	19.866		0.968749880791	145.09315
27.73	11.6881551743	19.901		1.1259611845	143.436325
27.83	11.8032569885	19.931		1.13785362244	142.0612
27.93	11.9244451523	19.955		1.1981137991	140.400175
28.03	12.0533313751	19.975		1.28885853291	138.441925
28.13	12.1909885406	19.989		1.36117076874	136.32835
28.23	12.3345527649	19.997		1.41965854168	134.07385
28.33	12.4859933853	20.0		1.51440870762	131.600275
28.43	12.6428041458	20.0		1.55081307888	129.03205
28.53	12.8046274185	20.0		1.60221135616	126.44425
28.63	12.9720001221	20.0		1.67193579674	123.880075
28.73	13.1501131058	20.0		1.76172351837	120.96625
28.83	13.3255414963	20.0		1.75248944759	118.4956
28.93	13.5102777481	20.0		1.82730066776	115.591
29.03	13.699131012	20.0		1.88674557209	112.710025
29.13	13.8928174973	20.0		1.93507790565	109.75705
29.23	14.0897264481	20.0		1.94782102108	106.824625
29.33	14.2930793762	20.0		2.01162576675	103.710175
29.43	14.4907045364	20.0		1.97445964813	101.01835
29.53	14.6953105927	20.0		2.02403235435	97.8895
29.63	14.8974103928	20.0		2.01921153069	95.04445
29.73	15.1039857864	20.0		2.06396365166	91.904275
29.83	15.316110611	20.0		2.07789826393	88.6921
29.93	15.5293092728	20.0		2.10910558701	85.593025
30.03	15.7416133881	20.0		2.10024380684	82.525825
30.13	15.9519481659	20.0		2.10155534744	79.59745
30.23	16.1705169678	20.0		2.1838991642	76.156975
30.33	16.378704071	20.0		2.05947971344	73.5124
30.43	16.5842056274	20.0		2.03289437294	70.656025
30.53	16.7897071838	20.0		2.05322313309	67.65775
30.63	16.9948501587	20.0		2.02934956551	64.737625
30.73	17.1493339539	20.0		1.54305005074	64.14565
30.83	17.3000583649	20.0		1.50545835495	62.066875
30.93	17.4210681915	20.0		1.19634139538	61.280725
31.03	17.5078868866	20.0		0.868189394474	61.111675
31.13	17.5658855438	20.0		0.574243843555	61.20085
31.23	17.5959587097	20.0		0.300733625889	61.66135
31.33	17.6015071869	20.0		0.0554925203323	62.33995
31.43	17.6016864777	20.0		0.00177235761657	62.5312
31.53	17.6108150482	20.0		0.0912941396236	62.114725
31.63	17.5979270935	20.0		-0.128885835409	63.003175
31.73	17.5864696503	20.0		-0.113430887461	63.1441
31.83	17.5768032074	20.0		-0.096664391458	63.178075
31.93	17.5700016022	20.0		-0.0680230855942	63.215125
32.03	17.5694637299	20.0		-0.00531707331538	63.038275
32.13	17.5692844391	20.0		-0.00179008126725	63.0064
32.23	17.5648097992	20.0		-0.0447520315647	63.1915
32.33	17.5839633942	20.0		0.18964228034	62.184775
32.43	17.6165428162	20.0		0.325794786215	61.263325
32.53	17.662727356	20.0		0.457268297672	60.18655
32.63	17.7180404663	20.0		0.553135097027	59.107675
32.73	17.7874965668	20.0		0.694551587105	57.667825
32.83	17.8664398193	20.0		0.779837310314	56.211475
32.93	17.9589862823	20.0		0.923681914806	54.426025
33.03	18.0626316071	20.0		1.03645706177	52.5778
33.13	18.1816711426	20.0		1.17684555054	50.386075
33.23	18.3101997375	20.0		1.27255260944	48.256
33.33	18.453584671	20.0		1.43206501007	45.6724
33.43	18.6023406982	19.999		1.47105681896	43.4137
33.53	18.7641639709	19.997		1.61823344231	40.588375
33.63	18.9392337799	19.994		1.74890947342	37.593325
33.73	19.1257610321	19.989		1.8450242281	34.44295
33.83	19.3198051453	19.983		1.93865799904	31.290475
33.93	19.534078598	19.976		2.11973977089	27.4531
34.03	19.7476348877	19.968		2.11265015602	24.238825
34.13	19.9733638763	19.958		2.25550222397	20.7325
34.23	20.2148456573	19.947		2.38913798332	15.819485
34.33	20.4520320892	19.935		2.37006759644	11.68172
34.43	20.688501358	19.921		2.36290740967	6.654165
34.53	20.9006252289	19.906		2.07789826393	2.19081
34.63	21.0635223389	19.89		1.62718391418	2.19081
34.73	21.2153205872	19.873		1.51619875431	2.19081
34.83	21.341342926	19.855		1.24773991108	-9.99065
34.93	21.4283409119	19.835		0.86136585474	-14.239195
35.03	21.4428405762	19.814		0.143560960889	-16.074665
35.13	21.4201068878	19.792		-0.227340310812	-18.46617
35.23	21.3565597534	19.769		-0.633688807487	-20.184165
35.33	21.2720680237	19.745		-0.836552739143	-22.05815
35.43	21.1748657227	19.72		-0.970224022865	-23.941285
35.53	21.0694293976	19.693		-1.05256783962	-25.632365
35.63	20.9550437927	19.665		-1.13253641129	-27.112635
35.73	20.8331394196	19.636		-1.21725523472	-28.25751
35.83	20.7060432434	19.606		-1.26916742325	-29.22537
35.93	20.5691013336	19.575		-1.35408127308	-29.674655
36.03	20.4298324585	19.543		-1.39089310169	-30.12374
36.13	20.2834033966	19.51		-1.4480162859	-30.031015
36.23	20.1357212067	19.475		-1.47502696514	-29.95121
36.33	19.9898300171	19.44		-1.45712602139	-29.726355
36.43	19.8374938965	19.403		-1.49348926544	-28.82547
36.53	19.6865901947	19.366		-1.50724852085	-28.120365
36.63	19.538192749	19.327		-1.48218727112	-26.9068
36.73	19.3815612793	19.287		-1.53385400772	-25.062625
36.83	19.2288665771	19.247		-1.52693927288	-23.559565
36.93	19.0752773285	19.205		-1.53588962555	-21.62849
37.03	18.9229412079	19.162		-1.50650382042	-19.66351
37.13	18.7663097382	19.118		-1.56453096867	-17.13505
37.23	18.60663414	19.074		-1.59496247768	-14.431335
37.33	18.4462432861	19.028		-1.60212266445	-11.407105
37.43	18.2829875946	18.981		-1.61639022827	-8.184545
37.53	18.1209850311	18.933		-1.60221135616	-4.794695
37.63	17.9570140839	18.885		-1.63792431355	-1.0361
37.73	17.8215045929	18.835		-1.35330140591	1.576005
37.83	17.6829528809	18.785		-1.37003231049	5.402155
37.93	17.5814552307	18.733		-1.00492680073	7.6103
38.03	17.5164756775	18.681		-0.649799466133	9.265895
38.13	17.4871177673	18.627		-0.290666669607	10.487515
38.23	17.4785251617	18.573		-0.0859238952398	11.71503
38.33	17.5089569092	18.518		0.30431380868	11.77162
38.43	17.5558567047	18.462		0.462585330009	11.99819
38.53	17.6118869781	18.405		0.560295462608	12.09608
38.63	17.6838474274	18.347		0.703747630119	11.456125
38.73	17.7703075409	18.289		0.86460930109	10.35816
38.83	17.8657188416	18.229		0.954113304615	8.94181
38.93	17.9768829346	18.169		1.08808875084	6.693535
39.03	18.0885848999	18.108		1.11701071262	4.5567
39.13	18.195274353	18.046		1.06509840488	2.303435
39.23	18.2820930481	17.983		0.857821166515	0.369825
39.33	18.3350791931	17.92		0.5298640728	0.369825
39.43	18.3681964874	17.855		0.331165015697	0.369825
39.53	18.3878879547	17.79		0.194959327579	-2.59398
39.63	18.3991661072	17.724		0.112775117159	-6.75242
39.73	18.3520870209	17.657		-0.470791369677	-6.594585
39.83	18.2799472809	17.59		-0.712487816811	-7.158705
39.93	18.1906223297	17.521		-0.891460478306	-7.67091
40.03	18.086977005	17.452		-1.02442264557	-8.059575
40.13	17.9736652374	17.383		-1.13133144379	-8.35766
40.23	17.8526554108	17.312		-1.20830488205	-8.4649
40.33	17.7250232697	17.241		-1.26191854477	-8.473685
40.43	17.5891551971	17.169		-1.35688149929	-8.135005
40.53	17.4488124847	17.096		-1.40163362026	-7.76354
40.63	17.3029212952	17.023		-1.44269919395	-7.098405
40.73	17.1520175934	16.949		-1.50724852085	-6.19215
40.83	16.9935951233	16.874		-1.58243191242	-4.98618
40.93	16.8285503387	16.799		-1.61809289455	-3.49893
41.03	16.6586723328	16.723		-1.69699704647	-1.764355
41.13	16.5126018524	16.646		-1.44624388218	-1.16123
41.23	16.3479137421	16.569		-1.62879657745	1.24868
41.33	16.2041702271	16.491		-1.43743526936	2.286665
41.43	16.0956916809	16.413		-1.07404875755	2.39049
41.53	16.0215816498	16.334		-0.741093635559	2.12946
41.63	15.9804096222	16.254		-0.411718666553	1.379185
41.73	15.9660892487	16.173		-0.141788616776	0.22345
41.83	15.9594659805	16.093		-0.0662330091	0.22345
41.93	15.9576759338	16.011		-0.0179008115083	0.22345
42.03	15.9576759338	15.929		0.0	-0.0768
42.13	15.9567804337	15.846		-0.00895040575415	-3.797075
42.23	15.9186515808	15.763		-0.381287306547	-3.410695
42.33	15.8762264252	15.679		-0.424249261618	-4.03564
42.43	15.8132152557	15.595		-0.630108594894	-4.009055
42.53	15.7342729568	15.51		-0.781609714031	-3.876815
