%1-Time(seg)	2-Pos_Encoder	3-x_ref	4-Velo_Encoder(m/s)	5-Torque(N.m)
3.32	0.0	0.0		0.0	0.0
3.42	0.0	0.003		0.0	0.0
3.52	0.0	0.011		0.0	0.0
3.62	0.0	0.026		0.0	0.521345
3.72	0.0	0.045		0.0	0.906285
3.82	-0.00196908949874	0.07		-0.0196908935905	1.481695
3.92	0.00859239045531	0.1		0.104569092393	1.58113
4.02	0.0254191532731	0.135		0.168267652392	1.93505
4.12	0.0388447642326	0.175		0.1324660182	2.652095
4.22	0.0563875623047	0.221		0.173691049218	3.287845
4.32	0.0776895284653	0.27		0.213019654155	3.95876
4.42	0.10937397182	0.325		0.313707321882	4.36719
4.52	0.15555806458	0.384		0.460050880909	4.53324
4.62	0.216420829296	0.447		0.608627617359	4.609405
4.72	0.290172189474	0.515		0.728438913822	4.496255
4.82	0.370546847582	0.587		0.803746461868	4.582425
4.92	0.458797872066	0.663		0.882510006428	4.56104
5.02	0.550271034241	0.743		0.905674695969	4.646835
5.12	0.64908349514	0.827		0.976569056511	4.477575
5.22	0.750581085682	0.915		1.01497602463	4.44065
5.32	0.852973759174	1.007		1.01378846169	4.52111
5.42	0.958946585655	1.102		1.0579379797	4.44271
5.52	1.06635141373	1.2		1.07404875755	4.42774
5.62	1.17429327965	1.302		1.06695914268	4.41693
5.72	1.28295123577	1.407		1.08478927612	4.462155
5.82	1.39214622974	1.515		1.081138134	4.53826
5.92	1.50402629375	1.626		1.11880075932	4.50978
6.02	1.61572742462	1.74		1.11522054672	4.140575
6.12	1.72653341293	1.856		1.09708929062	5.107335
6.22	1.84163570404	1.976		1.15102231503	4.769475
6.32	1.95888602734	2.098		1.17071306705	4.911145
6.42	2.07452535629	2.222		1.14317071438	5.13797
6.52	2.19356584549	2.349		1.19040417671	5.235215
6.62	2.31242728233	2.478		1.1886138916	5.565115
6.72	2.43773293495	2.609		1.23887789249	5.503305
6.82	2.56196451187	2.742		1.24231624603	5.829045
6.92	2.69049239159	2.877		1.27255260944	5.948175
7.02	2.82510662079	3.013		1.34614121914	5.90528
7.12	2.96437501907	3.152		1.37889432907	5.879575
7.22	3.10650753975	3.292		1.40547955036	5.89538
7.32	3.25007200241	3.433		1.43385505676	5.981495
7.42	3.39721679688	3.576		1.47144675255	5.88683
7.52	3.54257130623	3.72		1.43738210201	6.016535
7.62	3.69329619408	3.865		1.50545835495	5.90171
7.72	3.84491610527	4.011		1.51440870762	5.821675
7.82	3.99474596977	4.157		1.48169112206	5.90002
7.92	4.14493370056	4.305		1.50187814236	5.87378
8.02	4.29386854172	4.453		1.4875575304	5.980765
8.12	4.44656229019	4.602		1.51004874706	5.515935
8.22	4.59907722473	4.752		1.51004874706	5.86656
8.32	4.75803661346	4.901		1.57208132744	5.86656
8.42	4.92003917694	5.051		1.61823344231	4.966055
8.52	5.07953548431	5.201		1.59317231178	5.05517
8.62	5.23831558228	5.351		1.57208132744	4.9298
8.72	5.39673757553	5.501		1.58422195911	4.675365
8.82	5.55498075485	5.651		1.58243191242	4.48004
8.92	5.71125507355	5.8		1.54549598694	4.32971
9.02	5.86645507812	5.949		1.55021035671	4.10219
9.12	6.01485300064	6.097		1.48218727112	4.1456
9.22	6.16146087646	6.245		1.45156085491	4.09255
9.32	6.30269813538	6.392		1.41237413883	4.16981
9.42	6.4425034523	6.538		1.3842113018	4.180405
9.52	6.58051872253	6.683		1.37836253643	4.2222
9.62	6.71674394608	6.826		1.36046171188	4.297435
9.72	6.85028409958	6.969		1.32040643692	4.40835
9.82	6.98221302032	7.11		1.31749975681	4.557185
9.92	7.11288881302	7.25		1.30675923824	4.793575
10.02	7.24231147766	7.389		1.2796421051	4.3792
10.12	7.36976528168	7.525		1.27274775505	5.279705
10.22	7.50026226044	7.66		1.30317914486	5.00101
10.32	7.62843227386	7.793		1.26723563671	5.197525
10.42	7.75910806656	7.924		1.30496931076	5.14087
10.52	7.89050006866	8.053		1.29913818836	5.105885
10.62	8.02368164062	8.18		1.3168617487	5.0221
10.72	8.15561103821	8.304		1.31749975681	4.977585
10.82	8.28807735443	8.426		1.30977237225	4.81156
10.92	8.42215442657	8.545		1.32749581337	4.34408
11.02	8.55426216125	8.662		1.32107996941	4.85408
11.12	8.68422222137	8.776		1.28673171997	3.81139
11.22	8.81382369995	8.887		1.28141450882	3.70504
11.32	8.94020366669	8.995		1.26200735569	3.418995
11.42	9.06479358673	9.1		1.23178863525	2.972685
11.52	9.18544483185	9.201		1.19456899166	2.646835
11.62	9.30233669281	9.3		1.16713285446	2.17624
11.72	9.41242694855	9.395		1.08999991417	1.938655
11.82	9.50891208649	9.486		0.955300807953	1.94361
11.92	9.60521888733	9.574		0.953528344631	1.515025
12.02	9.69776630402	9.658		0.925472080708	1.170865
12.12	9.78207874298	9.738		0.84312826395	1.05248
12.22	9.86084270477	9.814		0.779837310314	0.822115
12.32	9.93155097961	9.886		0.70529204607	0.751695
12.42	9.99527740479	9.954		0.635478854179	0.754555
12.52	10.050412178	10.017		0.544113814831	0.839655
12.62	10.1003551483	10.076		0.499432682991	0.826375
12.72	10.1434965134	10.13		0.431409567595	0.9844
12.82	10.1884279251	10.18		0.444861769676	0.750875
12.92	10.2272729874	10.225		0.388447612524	0.855425
13.02	10.2362232208	10.265		0.0886178836226	2.10574
13.12	10.2806167603	10.3		0.443940162659	0.696625
13.22	10.2985172272	10.33		0.179008126259	1.57848
13.32	10.3026342392	10.355		0.040364574641	2.348145
13.42	10.3344974518	10.375		0.318634450436	1.26363
13.52	10.3445215225	10.389		0.100244559348	1.928475
13.62	10.3663606644	10.397		0.216227605939	1.377035
13.72	10.376206398	10.4		0.0984544679523	1.55689
13.82	10.3971500397	10.4		0.209439501166	0.672385
13.92	10.4057426453	10.4		0.0850731730461	1.34176
14.02	10.4114713669	10.4		0.0572826005518	0.820415
14.12	10.4189901352	10.4		0.0751834064722	0.76724
14.22	10.4222126007	10.4		0.0319024398923	0.837495
14.32	10.4265089035	10.4		0.0429619476199	0.646865
14.42	10.4329528809	10.4		0.0638048797846	0.46139
14.52	10.4329528809	10.4		0.0	0.57872
14.62	10.4329528809	10.4		0.0	0.5048
14.72	10.4329528809	10.4		0.0	0.43088
14.82	10.4329528809	10.4		0.0	0.35696
14.92	10.4329528809	10.4		0.0	0.28304
15.02	10.4329528809	10.4		0.0	0.20912
15.12	10.4329528809	10.4		0.0	0.20912
15.22	10.4329528809	10.4		0.0	0.1352
15.32	10.4329528809	10.4		0.0	0.06128
15.42	10.4329528809	10.4		0.0	0.06128
15.52	10.4329528809	10.4		0.0	-0.08656
15.62	10.433848381	10.4		0.00886178854853	-0.16048
15.72	10.4109354019	10.4		-0.229130402207	-0.281795
15.82	10.3985834122	10.4		-0.121093735099	0.764005
15.92	10.3985834122	10.4		-0.121093735099	0.527585
16.02	10.3905277252	10.4		-0.0805536583066	0.17696
16.12	10.3899908066	10.4		-0.00537024345249	0.17696
16.22	10.3899908066	10.4		0.0	0.17696
16.32	10.3899908066	10.4		0.0	0.17696
16.42	10.3899908066	10.4		0.0	0.17696
16.52	10.3899908066	10.4		0.0	0.17696
16.62	10.3899908066	10.4		0.0	0.17696
16.72	10.3899908066	10.4		0.0	0.17696
16.82	10.3899908066	10.4		0.0	0.17696
16.92	10.3899908066	10.4		0.0	0.17696
17.02	10.3899908066	10.4		0.0	0.17696
17.12	10.3899908066	10.4		0.0	0.17696
17.22	10.3899908066	10.4		0.0	0.17696
17.32	10.3899908066	10.4		0.0	0.17696
17.42	10.3899908066	10.4		0.0	0.17696
17.52	10.3899908066	10.4		0.0	0.17696
17.62	10.3899908066	10.4		0.0	0.17696
17.72	10.3899908066	10.4		0.0	0.17696
17.82	10.3899908066	10.4		0.0	0.17696
17.92	10.3899908066	10.4		0.0	0.17696
18.02	10.3899908066	10.4		0.0	0.17696
18.12	10.3899908066	10.4		0.0	0.17696
18.22	10.3899908066	10.4		0.0	0.17696
18.32	10.3899908066	10.4		0.0	0.17696
18.42	10.3899908066	10.403		0.0	0.17696
18.52	10.3899908066	10.411		0.0	0.793095
18.62	10.3885583878	10.426		-0.014320650138	0.834395
18.72	10.3797874451	10.445		-0.0859941020608	1.73428
18.82	10.4001941681	10.47		0.204069256783	1.024925
18.92	10.4095029831	10.5		0.0930842235684	1.868525
19.02	10.4259719849	10.535		0.163056924939	2.18833
19.12	10.4399347305	10.575		0.139626339078	2.903135
19.22	10.4571199417	10.62		0.17184779048	3.536645
19.32	10.4895200729	10.669		0.320796728134	3.63658
19.42	10.5378522873	10.723		0.481531858444	3.592675
19.52	10.5963878632	10.782		0.585356533527	3.66466
19.62	10.6613674164	10.845		0.641593456268	3.79227
19.72	10.7324333191	10.912		0.703625977039	3.8754
19.82	10.8077955246	10.984		0.753624260426	3.956965
19.92	10.8894233704	11.059		0.800271630287	4.050245
20.02	10.9767789841	11.139		0.873559653759	3.933785
20.12	11.0655670166	11.222		0.879089355469	4.105285
20.22	11.1590089798	11.309		0.934422433376	4.08173
20.32	11.2544202805	11.399		0.954113304615	4.16244
20.42	11.3526954651	11.493		0.973024368286	4.114085
20.52	11.4538354874	11.59		1.00960576534	4.172235
20.62	11.5560493469	11.691		1.02034628391	4.245745
20.72	11.6600532532	11.794		1.02973985672	4.339095
20.82	11.7658472061	11.901		1.0579379797	4.361975
20.92	11.8709249496	12.01		1.04898750782	4.61511
21.02	11.9824466705	12.122		1.10240638256	4.52377
21.12	12.0948638916	12.237		1.1241710186	4.602845
21.22	12.2103242874	12.355		1.14139831066	4.6952
21.32	12.3275747299	12.474		1.17071306705	4.75568
21.42	12.4473314285	12.597		1.19577431679	4.81616
21.52	12.5670881271	12.721		1.1857073307	5.018825
21.62	12.687918663	12.847		1.20651483536	5.132585
21.72	12.8119716644	12.976		1.24052631855	5.20567
21.82	12.9392461777	13.106		1.25837385654	5.31511
21.92	13.0709962845	13.238		1.31570971012	5.23945
22.02	13.2050733566	13.371		1.33898067474	5.28681
22.12	13.3421936035	13.506		1.3558536768	5.2349
22.22	13.4841470718	13.643		1.40547955036	5.095595
22.32	13.6232366562	13.78		1.39089310169	5.27321
22.42	13.7565975189	13.919		1.3186340332	5.523945
22.52	13.8870944977	14.059		1.30496931076	5.906395
22.62	14.0222454071	14.2		1.33635759354	5.928175
22.72	14.1650943756	14.341		1.42848479748	5.75689
22.82	14.3057947159	14.483		1.40521371365	5.89904
22.92	14.4497175217	14.626		1.42497563362	5.88265
23.02	14.5893440247	14.77		1.39447331429	6.2099
23.12	14.7275381088	14.913		1.38015270233	6.402255
23.22	14.8643007278	15.057		1.35230886936	6.668725
23.32	15.006611824	15.201		1.42132461071	6.602755
23.42	15.1474914551	15.345		1.40700387955	6.87246
23.52	15.2842540741	15.489		1.35408127308	7.197685
23.62	15.4219112396	15.633		1.36294305325	7.39557
23.72	15.5604639053	15.776		1.37003231049	7.63877
23.82	15.7042074203	15.919		1.43564510345	7.563645
23.92	15.8518886566	16.061		1.46042275429	7.519825
24.02	16.0018978119	16.202		1.48346340656	7.45012
24.12	16.1536960602	16.343		1.51619875431	7.315935
24.22	16.3080005646	16.483		1.54125988483	7.157945
24.32	16.4580097198	16.622		1.48346340656	7.17677
24.42	16.6094512939	16.759		1.51261866093	6.98278
24.52	16.7592811584	16.896		1.49650800228	6.778265
24.62	16.910364151	17.031		1.49409759045	6.52911
24.72	17.0582256317	17.164		1.47681713104	6.327865
24.82	17.2048339844	17.296		1.44978845119	6.01823
24.92	17.3464298248	17.426		1.41595435143	5.946085
25.02	17.4819393158	17.555		1.35330140591	5.83659
25.12	17.6118984222	17.681		1.28673171997	5.855005
25.22	17.7368469238	17.805		1.24947667122	5.806595
25.32	17.8594665527	17.927		1.2262057066	5.74407
25.42	17.9810123444	18.047		1.20165836811	5.55936
25.52	18.1004104614	18.164		1.19398403168	5.485795
25.62	18.2158699036	18.279		1.15460240841	5.382595
25.72	18.3272132874	18.391		1.10240638256	5.42382
25.82	18.4356918335	18.501		1.08478927612	5.330985
25.92	18.5414848328	18.607		1.05614793301	5.371535
26.02	18.6447715759	18.711		1.02087807655	5.21735
26.12	18.7453746796	18.811		1.00602567196	5.25806
26.22	18.8470516205	18.908		1.00669908524	4.95961
26.32	18.94389534	19.002		0.968433916569	4.94272
26.42	19.0391273499	19.093		0.952323257923	4.814685
26.52	19.134180069	19.179		0.939349472523	4.5741
26.62	19.2227897644	19.263		0.886090219021	4.467575
26.72	19.3090724945	19.342		0.852504074574	4.36985
26.82	19.3903427124	19.417		0.802877962589	4.23577
26.92	19.4666004181	19.489		0.762574613094	4.09721
27.02	19.5441112518	19.556		0.773315131664	3.811985
27.12	19.6169681549	19.619		0.71957719326	3.56379
27.22	19.684633255	19.677		0.669951200485	3.381425
27.32	19.7469272614	19.732		0.616780459881	3.20338
27.42	19.8072528839	19.781		0.603257417679	2.937105
27.52	19.8620300293	19.826		0.540569067001	2.64411
27.62	19.9144802094	19.866		0.519300758839	2.322155
27.72	19.958158493	19.901		0.43677982688	2.15858
27.82	19.997718811	19.931		0.395607978106	1.843025
27.92	20.0294036865	19.955		0.313707321882	1.737725
28.02	20.0397853851	19.975		0.103824712336	2.166215
28.12	20.0732593536	19.989		0.334745168686	0.945305
28.22	20.0893707275	19.997		0.159512192011	1.04537
28.32	20.1002902985	20.0		0.10919495672	0.742935
28.42	20.1065559387	20.0		0.0626528412104	0.41826
28.52	20.1142539978	20.0		0.0762113779783	0.41826
28.62	20.1149692535	20.0		0.00708943046629	0.41826
28.72	20.1149692535	20.0		0.0	-0.33104
28.82	20.1162223816	20.0		0.0125305699185	-0.636035
28.92	20.0906238556	20.0		-0.254191547632	0.320875
29.02	20.075050354	20.0		-0.152683392167	0.0784800000001
29.12	20.075050354	20.0		0.0	0.0784800000001
29.22	20.0743350983	20.0		-0.00716032506898	0.0784800000001
29.32	20.0682487488	20.0		-0.0602601617575	-0.63339
29.42	20.054643631	20.0		-0.134699165821	-0.360825
29.52	20.0431861877	20.0		-0.114565201104	-0.32966
29.62	20.0294017792	20.0		-0.136471539736	-0.14495
29.72	20.0188407898	20.0		-0.104569092393	-0.18221
29.82	20.0068473816	20.0		-0.119935445487	0.356985
29.92	19.9950332642	20.0		-0.116975605488	0.356985
30.02	19.9902000427	20.0		-0.0465421117842	0.356985
30.12	19.9862613678	20.0		-0.0389918722212	0.22531
30.22	19.9862613678	20.0		0.0	0.11854
30.32	19.9862613678	20.0		0.0	0.0224
30.42	19.9862613678	20.0		0.0	0.05376
30.52	19.9862613678	20.0		0.0	0.08512
30.62	19.9862613678	20.0		0.0	0.11648
30.72	19.9862613678	20.0		0.0	0.14784
30.82	19.9862613678	20.0		0.0	0.1792
30.92	19.9862613678	20.0		0.0	0.21056
31.02	19.9862613678	20.0		0.0	0.24192
31.12	19.9862613678	20.0		0.0	0.27328
31.22	19.9862613678	20.0		0.0	0.30464
31.32	19.9862613678	20.0		0.0	0.336
31.42	19.9862613678	20.0		0.0	0.36736
31.52	19.9862613678	20.0		0.0	0.39872
31.62	19.9862613678	20.0		0.0	0.43008
31.72	19.9862613678	20.0		0.0	0.46144
31.82	19.9862613678	20.0		0.0	0.4928
31.92	19.9862613678	20.0		0.0	0.52416
32.02	19.9862613678	20.0		0.0	0.55552
32.12	19.9862613678	20.0		0.0	0.58688
32.22	19.9862613678	20.0		0.0	0.61824
32.32	19.9862613678	20.0		0.0	0.6496
32.42	19.9862613678	20.0		0.0	0.68096
32.52	19.9862613678	20.0		0.0	0.71232
32.62	19.9839344025	20.0		-0.0232710558921	0.83847
32.72	19.9731941223	20.0		-0.107404880226	1.331905
32.82	19.9637069702	20.0		-0.0939349606633	1.468315
32.92	19.9479541779	20.0		-0.157527148724	2.0204
33.02	19.9662132263	20.0		0.180780485272	0.77377
33.12	19.9758796692	20.0		0.0948743075132	0.94973
33.22	19.9869785309	20.0		0.110985040665	0.800895
33.32	19.9932441711	20.0		0.0620325133204	0.564505
33.42	20.0012989044	19.999		0.0805536583066	0.97888
33.52	20.0027313232	19.997		0.014320650138	0.97888
33.62	20.0132923126	19.994		0.104569092393	0.22056
33.72	20.0217056274	19.989		0.0841338261962	0.12598
33.82	20.022064209	19.983		0.00358016253449	0.208785
33.92	20.022064209	19.976		0.0	0.00987000000003
34.02	20.0222434998	19.968		0.00179008126725	0.00987000000003
34.12	20.0222434998	19.958		0.0	-0.47708
34.22	20.0222434998	19.947		0.0	-0.81699
34.32	20.0089969635	19.935		-0.130675926805	-0.54681
34.42	19.9859046936	19.921		-0.228634148836	-0.228095
34.52	19.9714050293	19.906		-0.144996598363	-0.645565
34.62	19.9558315277	19.89		-0.155737057328	-0.78944
34.72	19.944196701	19.873		-0.114073805511	-1.09102
34.82	19.9325618744	19.855		-0.116355285048	-1.36885
34.92	19.9083957672	19.835		-0.241660967469	-0.980235
35.02	19.8876304626	19.814		-0.20559348166	-1.32208
35.12	19.863822937	19.792		-0.238080814481	-1.298615
35.22	19.8357181549	19.769		-0.28104275465	-1.22187
35.32	19.8065395355	19.745		-0.287121921778	-1.22731
35.42	19.7782554626	19.72		-0.282832860947	-1.266705
35.52	19.7519416809	19.693		-0.260536581278	-1.452605
35.62	19.7247333527	19.665		-0.269398331642	-1.55616
35.72	19.6962718964	19.636		-0.284622907639	-1.580445
35.82	19.6638717651	19.606		-0.320796728134	-1.539575
35.92	19.6296806335	19.575		-0.341905534267	-1.50834
36.02	19.6067676544	19.543		-0.229130402207	-2.06876
36.12	19.5770530701	19.51		-0.292438983917	-1.98023
36.22	19.5412521362	19.475		-0.358016252518	-1.850455
36.32	19.5013332367	19.44		-0.395235747099	-1.778545
36.42	19.4598026276	19.403		-0.41118696332	-1.71179
36.52	19.4154090881	19.366		-0.443940162659	-1.56868
36.62	19.3740577698	19.327		-0.41350877285	-1.28182
36.72	19.3350334167	19.287		-0.38460162282	-1.66432
36.82	19.2963676453	19.247		-0.386657565832	-1.66432
36.92	19.2580604553	19.205		-0.37928456068	-2.185665
37.02	19.2172470093	19.162		-0.404097557068	-1.907075
37.12	19.1760749817	19.118		-0.411718666553	-1.99687
37.22	19.1313228607	19.074		-0.443089365959	-1.917085
37.32	19.0842437744	19.028		-0.470791369677	-1.361945
37.42	19.0393123627	18.981		-0.447520315647	-2.297665
37.52	18.9929485321	18.933		-0.454540252686	-2.019075
37.62	18.9480171204	18.885		-0.447520315647	-2.156265
37.72	18.9011173248	18.835		-0.46900126338	-2.141635
37.82	18.851890564	18.785		-0.487398326397	-2.192995
37.92	18.8030204773	18.733		-0.488692164421	-2.246595
38.02	18.7527198792	18.681		-0.498032510281	-2.34983
38.12	18.7000923157	18.627		-0.526283919811	-2.283485
38.22	18.6451358795	18.573		-0.544113814831	-2.310525
38.32	18.5926856995	18.518		-0.519300758839	-2.47751
38.42	18.540058136	18.462		-0.526283919811	-2.55335
38.52	18.4851016998	18.405		-0.549554944038	-2.586275
38.62	18.4292507172	18.347		-0.55120319128	-2.653315
38.72	18.3708934784	18.289		-0.583566427231	-2.6752
38.82	18.3107471466	18.229		-0.601467251778	-2.63417
38.92	18.2502422333	18.169		-0.599056899548	-2.699805
39.02	18.1906318665	18.108		-0.594306945801	-2.826115
39.12	18.1269054413	18.046		-0.637268900871	-2.701335
39.22	18.0629997253	17.983		-0.624773442745	-2.74473
39.32	17.9981994629	17.92		-0.648009419441	-2.75177
39.42	17.9333992004	17.855		-0.641593456268	-2.75433
39.52	17.8694934845	17.79		-0.639059007168	-2.894595
39.62	17.805229187	17.724		-0.640849113464	-2.941475
39.72	17.7377433777	17.657		-0.668178796768	-2.895805
39.82	17.6700782776	17.59		-0.668178796768	-2.911645
39.92	17.6000862122	17.521		-0.699921786785	-2.830455
40.02	17.5329589844	17.452		-0.656363070011	-3.04327
40.12	17.4620723724	17.383		-0.708872139454	-2.43766
40.22	17.3927955627	17.312		-0.692761421204	-3.29411
40.32	17.3210124969	17.241		-0.708943068981	-2.52381
40.42	17.2497673035	17.169		-0.712452352047	-2.84256
40.52	17.1788806915	17.096		-0.707082033157	-2.84256
40.62	17.1110363007	17.023		-0.669951200485	-3.553485
40.72	17.0403289795	16.949		-0.707082033157	-3.20375
40.82	16.967830658	16.874		-0.716032505035	-3.27287
40.92	16.8940792084	16.799		-0.735723376274	-3.299075
41.02	16.8176422119	16.723		-0.755024373531	-3.264605
41.12	16.7403106689	16.646		-0.76565849781	-3.24425
41.22	16.6610107422	16.569		-0.791215956211	-3.25129
41.32	16.5813522339	16.491		-0.794796049595	-3.206455
41.42	16.498292923	16.413		-0.820601582527	-2.76022
41.52	16.4166660309	16.334		-0.81627702713	-3.14272
41.62	16.3370075226	16.254		-0.796586155891	-3.14272
41.72	16.2569904327	16.173		-0.790471494198	-3.14272
41.82	16.1793003082	16.093		-0.776895225048	-3.14272
41.92	16.0992832184	16.011		-0.790471494198	-3.14272
42.02	16.0206985474	15.929		-0.784055531025	-3.61667
42.12	15.9422931671	15.846		-0.782265484333	-3.462505
42.22	15.8617391586	15.763		-0.789741635323	-3.538185
42.32	15.7804698944	15.679		-0.81090682745	-3.525795
42.42	15.6984844208	15.595		-0.818067193031	-3.62679
42.52	15.6170358658	15.51		-0.806422770023	-3.747785
42.62	15.5345134735	15.425		-0.823437333107	-3.843625
42.72	15.449842453	15.339		-0.844918370247	-3.804
42.82	15.363202095	15.253		-0.857821166515	-3.812605
42.92	15.2769203186	15.166		-0.862819135189	-3.89824
43.02	15.1895647049	15.079		-0.871769607067	-3.952
43.12	15.0989866257	14.991		-0.905781149864	-3.81618
43.22	15.0098409653	14.903		-0.891460478306	-3.941085
43.32	14.9169359207	14.814		-0.919853568077	-3.778545
43.42	14.8222408295	14.725		-0.945162951946	-3.30575
43.52	14.7325572968	14.635		-0.895040631294	-3.752
43.62	14.6421585083	14.546		-0.893268287182	-3.752
43.72	14.5526542664	14.455		-0.886178731918	-3.752
43.82	14.4683418274	14.364		-0.841338157654	-4.368135
43.92	14.3843870163	14.273		-0.829463362694	-4.314645
44.02	14.2957782745	14.182		-0.875544726849	-4.278505
44.12	14.2107496262	14.09		-0.850288629532	-4.51877
