%1-Time(seg)	2-Pos_Encoder	3-x_ref	4-Velo_Encoder(m/s)	5-Torque(N.m)
3.34	0.0	0.0		0.0	0.0
3.35	0.0	0.0		0.0	0.0
3.45	0.0	0.004		0.0	0.0
3.55	0.0	0.013		0.0	0.0
3.65	0.0	0.028		0.0	0.616135
3.75	0.0	0.048		0.0	0.941805
3.85	0.00179008126725	0.073		0.0159512199461	1.37951
3.95	0.0211229622364	0.104		0.193328782916	1.19317
4.05	0.0341905578971	0.14		0.129382103682	1.97151
4.15	0.0481531918049	0.18		0.139626339078	2.59725
4.25	0.0669490471482	0.226		0.186097562313	3.097375
4.35	0.100781582296	0.276		0.336535304785	3.24986
4.45	0.147860720754	0.331		0.466130077839	3.289545
4.55	0.204606294632	0.391		0.561837315559	3.38585
4.65	0.268154174089	0.455		0.635478854179	3.589655
4.75	0.338146358728	0.523		0.699921786785	3.67643
4.85	0.416372895241	0.596		0.772747993469	3.65581
4.95	0.500685691833	0.672		0.84312826395	3.6455
5.05	0.589831709862	0.753		0.882634043694	3.624665
5.15	0.681483864784	0.837		0.905674695969	3.74877
5.25	0.777074217796	0.926		0.954113304615	3.66006
5.35	0.873201608658	1.017		0.951756119728	3.845195
5.45	0.970940053463	1.113		0.967707276344	3.855275
5.55	1.07011055946	1.212		0.989914894104	4.039255
5.65	1.17107117176	1.314		0.999609708786	4.13641
5.75	1.2736427784	1.419		1.0257165432	4.244605
5.85	1.37746751308	1.527		1.03824722767	4.46087
5.95	1.48523044586	1.639		1.06518697739	4.4912
6.05	1.59657347202	1.753		1.11343050003	4.58528
6.15	1.70791649818	1.87		1.11164045334	4.821545
6.25	1.82570385933	1.99		1.16621124744	4.779325
6.35	1.94474422932	2.112		1.1886138916	4.957155
6.45	2.06718587875	2.237		1.2244155407	5.02608
6.55	2.19284963608	2.364		1.24419486523	5.079485
6.65	2.32298851013	2.493		1.29959893227	5.067735
6.75	2.45652866364	2.624		1.32040643692	5.018225
6.85	2.59508085251	2.757		1.3718047142	4.926475
6.95	2.73613929749	2.892		1.41058409214	4.8354
7.05	2.88364195824	3.029		1.45865046978	4.142145
7.15	3.03132367134	3.168		1.47502696514	4.81152
7.25	3.17882633209	3.308		1.47323691845	4.290175
7.35	3.3257920742	3.449		1.45510554314	4.284395
7.45	3.47025156021	3.592		1.44280552864	4.325015
7.55	3.61166787148	3.736		1.41237413883	4.420995
7.65	3.75183129311	3.881		1.38775599003	4.5339
7.75	3.89181566238	4.028		1.39805352688	4.607535
7.85	4.03287410736	4.174		1.40879380703	4.944865
7.95	4.17446947098	4.322		1.40016245842	4.59424
8.05	4.31570672989	4.471		1.41237413883	4.59424
8.15	4.4594502449	4.62		1.40749526024	5.16298
8.25	4.60283565521	4.769		1.43385505676	5.044335
8.35	4.75212860107	4.919		1.491137743	4.92304
8.45	4.90231657028	5.068		1.47067475319	4.96112
8.55	5.05662155151	5.218		1.54125988483	4.71483
8.65	5.21110534668	5.368		1.54305005074	4.409375
8.75	5.36612653732	5.518		1.53308939934	4.76
8.85	5.52150535583	5.668		1.55200052261	4.76
8.95	5.67670536041	5.817		1.55200052261	4.76
9.05	5.83512735367	5.966		1.5667642355	3.90689
9.15	5.99283361435	6.114		1.57706153393	4.013765
9.25	6.14749670029	6.262		1.5295445919	3.95579
9.35	6.30019044876	6.409		1.52514922619	3.836145
9.45	6.44751405716	6.554		1.45687782764	3.863005
9.55	6.59286880493	6.699		1.43738210201	3.80752
9.65	6.73589611053	6.843		1.42848479748	3.81495
9.75	6.87802839279	6.986		1.41953444481	3.81495
9.85	7.01783370972	7.127		1.38243889809	3.76311
9.95	7.15763902664	7.266		1.39805352688	3.763145
10.05	7.29368543625	7.405		1.36046171188	3.643235
10.15	7.42758369446	7.541		1.32395100594	3.684105
10.25	7.42758369446	7.676		1.32395100594	3.762735
10.35	7.55790138245	7.808		1.30138897896	10.234535
10.45	7.70325613022	7.939		1.43915438652	5.388345
10.55	7.85451793671	8.068		1.51082849503	5.042625
10.65	8.00918102264	8.194		1.5295445919	4.715285
10.75	8.16491794586	8.318		1.54195094109	4.22247
10.85	8.31689548492	8.44		1.51798892021	3.869225
10.95	8.47030544281	8.559		1.51713824272	3.37175
11.05	8.6169128418	8.675		1.44978845119	2.93374
11.15	8.7599401474	8.789		1.42848479748	2.416655
11.25	8.89169025421	8.9		1.31570971012	2.23377
11.35	9.0168170929	9.007		1.23710560799	1.91327
11.45	9.14552402496	9.112		1.28527832031	1.05475
11.55	9.26456451416	9.213		1.19040417671	0.78111
11.65	9.38002490997	9.311		1.14139831066	0.22111
11.75	9.48438644409	9.406		1.04361736774	0.00891000000004
11.85	9.57657527924	9.497		0.91099178791	0.00891000000004
11.95	9.65659236908	9.584		0.80016630888	-0.018015
12.05	9.72497367859	9.667		0.677040636539	0.173465
12.15	9.78315162659	9.747		0.576016187668	0.436875
12.25	9.82951450348	9.822		0.461840957403	0.944195
12.35	9.87211799622	9.894		0.42603930831	1.270435
12.45	9.91830253601	9.961		0.455495893955	1.33883
12.55	9.95070266724	10.024		0.324004709721	1.5938
12.65	9.97057247162	10.083		0.196731716394	3.340735
12.75	10.0203371048	10.136		0.492715418339	2.24403
12.85	10.0541696548	10.186		0.338325351477	2.966905
12.95	10.1005325317	10.23		0.45904058218	2.687145
13.05	10.1506547928	10.27		0.501222729683	2.49755
13.15	10.196480751	10.304		0.458260804415	2.628785
13.25	10.2458868027	10.334		0.489170730114	2.1956
13.35	10.2972621918	10.358		0.50866663456	1.840225
13.45	10.3497114182	10.377		0.52449375391	0.838865
13.55	10.3924942017	10.39		0.423593461514	1.307315
13.65	10.4370670319	10.398		0.445730239153	0.2352
13.75	10.4728689194	10.4		0.358016252518	0.2352
13.85	10.4956026077	10.4		0.225089401007	0.2352
13.95	10.5203056335	10.4		0.247031211853	-1.13108
14.05	10.5362377167	10.4		0.157739818096	-1.3932
14.15	10.5475149155	10.4		0.111658535898	-1.75658
14.25	10.5165462494	10.4		-0.309684097767	-0.236355
14.35	10.4852199554	10.4		-0.310162574053	0.03008
14.45	10.4630231857	10.4		-0.221970081329	0.03008
14.55	10.4503135681	10.4		-0.125305682421	0.03008
14.65	10.4195241928	10.4		-0.304845511913	0.53161
14.75	10.4159440994	10.4		-0.0358016230166	0.53161
14.85	10.41522789	10.4		-0.00716032506898	0.53161
14.95	10.4053821564	10.4		-0.0965239852667	0.249645
15.05	10.4037714005	10.4		-0.0161107294261	0.249645
15.15	10.4012651443	10.4		-0.0250611398369	0.249645
15.25	10.3973274231	10.4		-0.0389918722212	-0.22848
15.35	10.3937473297	10.4		-0.0358016230166	-0.22848
15.45	10.3847970963	10.4		-0.0895040631294	0.482445
15.55	10.3767414093	10.4		-0.0797560960054	0.41708
15.65	10.3765621185	10.4		-0.00179008126725	0.2136
15.75	10.3763828278	10.4		-0.00177235761657	0.312515
15.85	10.3763828278	10.4		0.0	0.3344
15.95	10.3763828278	10.4		0.0	0.38816
16.05	10.3763828278	10.4		0.0	0.44192
16.15	10.3763828278	10.4		0.0	0.49568
16.25	10.3763828278	10.4		0.0	0.54944
16.35	10.3763828278	10.4		0.0	0.6032
16.45	10.3763828278	10.4		0.0	0.65696
16.55	10.3763828278	10.4		0.0	0.71072
16.65	10.3754873276	10.4		-0.00886178854853	0.811875
16.75	10.3652839661	10.4		-0.102034628391	1.30995
16.85	10.3529319763	10.4		-0.123515605927	1.63834
16.95	10.3745918274	10.4		0.214455291629	0.31843
17.05	10.3855113983	10.4		0.108113802969	0.554335
17.15	10.386048317	10.4		0.00531707331538	0.93632
17.25	10.3894491196	10.4		0.0340115427971	0.825495
17.35	10.3973255157	10.4		0.0779837444425	0.424415
17.45	10.4046649933	10.4		0.0726666674018	0.77504
17.55	10.4075288773	10.4		0.0286413002759	0.77504
17.65	10.4173746109	10.4		0.0984544679523	0.77504
17.75	10.4241771698	10.4		0.0673495829105	0.77504
17.85	10.4245347977	10.4		0.00358016253449	0.263325
17.95	10.4245347977	10.4		0.0	0.2392
18.05	10.4247140884	10.4		0.00177235761657	0.1832
18.15	10.4247140884	10.4		0.0	0.1272
18.25	10.4247140884	10.4		0.0	0.0712
18.35	10.4248933792	10.4		0.00179008126725	0.0152
18.45	10.4248933792	10.404		0.0	0.0152
18.55	10.4252510071	10.413		0.00354471523315	0.0152
18.65	10.4265041351	10.428		0.012406501919	0.519335
18.75	10.4266834259	10.448		0.00179008126725	0.519335
18.85	10.4281158447	10.473		0.0141788609326	0.558525
18.95	10.4386777878	10.504		0.105614796281	1.29873
19.05	10.4453010559	10.539		0.0662330091	2.113515
19.15	10.4649915695	10.58		0.194959327579	2.159725
19.25	10.4794912338	10.625		0.144996598363	3.127025
19.35	10.5029411316	10.675		0.232710570097	3.487935
19.45	10.5408906937	10.73		0.375739842653	3.66058
19.55	10.5913705826	10.789		0.499804854393	3.815215
19.65	10.6520547867	10.853		0.599056899548	3.87241
19.75	10.7211523056	10.92		0.689181268215	4.006065
19.85	10.7975883484	10.992		0.762574613094	3.98717
19.95	10.8793954849	11.068		0.809967458248	4.152645
20.05	10.9656772614	11.148		0.861029028893	4.171295
20.15	11.0578660965	11.232		0.92189180851	4.18166
20.25	11.1522035599	11.319		0.934032440186	4.29181
20.35	11.2504787445	11.41		0.982754588127	4.268415
20.45	11.3539457321	11.504		1.03287696838	4.157465
20.55	11.4597396851	11.602		1.04746341705	4.12854
20.65	11.5671443939	11.703		1.07404875755	4.183045
20.75	11.676697731	11.806		1.09552967548	4.121765
20.85	11.7848186493	11.913		1.07941901684	4.229905
20.95	11.8938350677	12.023		1.09015953541	4.34153
21.05	12.006072998	12.136		1.10949587822	4.35305
21.15	12.1167001724	12.251		1.0935447216	4.54967
21.25	12.2309074402	12.368		1.14028167725	4.575875
21.35	12.3467254639	12.489		1.1449431181	4.636195
21.45	12.4629020691	12.611		1.15026009083	4.888335
21.55	12.5805101395	12.735		1.17429339886	4.97678
21.65	12.701877594	12.862		1.20165836811	5.058665
21.75	12.8243188858	12.991		1.21052014828	5.273935
21.85	12.951415062	13.121		1.26916742325	5.29447
21.95	13.0804796219	13.253		1.27609753609	5.367715
22.05	13.213303566	13.387		1.32824027538	5.380285
22.15	13.3493499756	13.522		1.33203101158	5.40697
22.25	13.4895133972	13.658		1.39984357357	5.27147
22.35	13.6268129349	13.796		1.37299239635	5.487005
22.45	13.7592792511	13.935		1.29868650436	5.87269
22.55	13.8913869858	14.075		1.32107996941	6.096085
22.65	14.0249271393	14.216		1.33540070057	6.25589
22.75	14.1692075729	14.358		1.42674779892	6.034455
22.85	14.3109817505	14.5		1.41774427891	6.23536
22.95	14.4559783936	14.643		1.44996595383	6.198455
23.05	14.6002588272	14.786		1.42852020264	6.345245
23.15	14.744181633	14.93		1.43743526936	6.426045
23.25	14.8832712173	15.074		1.37534952164	6.788975
23.35	15.0291624069	15.218		1.45712602139	6.64009
23.45	15.1671772003	15.362		1.37836253643	7.08901
23.55	15.304476738	15.506		1.3576259613	7.343765
23.65	15.4399862289	15.649		1.35330140591	7.62972
23.75	15.5822973251	15.792		1.42132461071	7.569955
23.85	15.7285470963	15.935		1.44624388218	7.49858
23.95	15.8789138794	16.077		1.50187814236	7.435435
24.05	16.0291023254	16.219		1.50187814236	7.40484
24.15	16.1810798645	16.359		1.48822450638	7.40484
24.25	16.330909729	16.499		1.49829804897	7.29341
24.35	16.4827079773	16.638		1.51798892021	7.03606
24.45	16.6348648071	16.775		1.49173438549	7.03606
24.55	16.7843360901	16.912		1.47991871834	6.69608
24.65	16.9434738159	17.046		1.57385373116	13.27264
24.75	16.9434738159	17.18		1.57385373116	1.943555
24.85	17.0752239227	17.311		1.31749975681	13.38796
24.95	17.2533378601	17.441		1.76172351837	7.060595
25.05	17.4081802368	17.569		1.53131699562	7.503765
25.15	17.5632019043	17.695		1.54842031002	6.810525
25.25	17.7169704437	17.819		1.53767979145	6.81971
25.35	17.867515564	17.941		1.4887804985	6.192015
25.45	18.0166301727	18.061		1.4893475771	5.663215
25.55	18.159658432	18.178		1.42848479748	5.263515
25.65	18.2960624695	18.292		1.34876406193	4.874375
25.75	18.4235153198	18.404		1.27453780174	4.55215
25.85	18.5420188904	18.513		1.17152833939	4.41835
25.95	18.6519298553	18.619		1.09910988808	4.253085
26.05	18.7519950867	18.723		0.998865365982	4.25797
26.15	18.8466911316	18.823		0.935804843903	4.195355
26.25	18.9324359894	18.919		0.857448935509	4.341645
26.35	19.0117359161	19.013		0.793005943298	4.37768
26.45	19.0881729126	19.103		0.756796658039	4.51247
26.55	19.1629981995	19.189		0.748254001141	4.481645
26.65	19.235496521	19.272		0.723192811012	4.53265
26.75	19.3108596802	19.351		0.744390249252	4.315125
26.85	19.3829994202	19.426		0.719612658024	4.336405
26.95	19.4551391602	19.497		0.72140276432	4.183785
27.05	19.5245952606	19.563		0.679177939892	4.070595
27.15	19.5938720703	19.626		0.690971314907	3.833815
27.25	19.6617164612	19.684		0.671723484993	3.623025
27.35	19.7261600494	19.738		0.642639160156	3.41739
27.45	19.7880973816	19.786		0.619368195534	3.1354
27.55	19.8435897827	19.831		0.547658443451	2.89924
27.65	19.895860672	19.87		0.522703707218	2.692555
27.75	19.9434776306	19.904		0.476161628962	2.39092
27.85	19.9735507965	19.934		0.297756105661	2.624585
27.95	20.0172290802	19.958		0.43677982688	1.756025
28.05	20.051240921	19.977		0.340115427971	1.51053
28.15	20.0707530975	19.99		0.193186998367	1.573565
28.25	20.0850734711	19.998		0.141788616776	1.347485
28.35	20.1010055542	20.0		0.157739818096	0.7874
28.45	20.1067333221	20.0		0.0572826005518	0.6221
28.55	20.1113872528	20.0		0.0465421117842	0.32034
28.65	20.1113872528	20.0		0.0	0.1992
28.75	20.1113872528	20.0		0.0	0.1992
28.85	20.1113872528	20.0		0.0	0.1992
28.95	20.1113872528	20.0		0.0	-0.54672
29.05	20.118188858	20.0		0.0680230855942	-1.127125
29.15	20.0879364014	20.0		-0.302523732185	0.25353
29.25	20.0798816681	20.0		-0.0797560960054	0.25353
29.35	20.077375412	20.0		-0.0250611398369	0.25353
29.45	20.0632343292	20.0		-0.141416430473	-0.41727
29.55	20.0600128174	20.0		-0.0315896682441	-0.862455
29.65	20.0406799316	20.0		-0.193328782916	-0.191975
29.75	20.030298233	20.0		-0.10279674083	-0.368095
29.85	20.0215263367	20.0		-0.0877139791846	-0.40676
29.95	20.0115013123	20.0		-0.100244559348	-0.23709
30.05	20.0011196136	20.0		-0.10279674083	-0.0139799999999
30.15	19.9921684265	20.0		-0.0895040631294	-0.39648
30.25	19.9828605652	20.0		-0.0930842235684	0.409235
30.35	19.9764156342	20.0		-0.0638048797846	0.237205
30.45	19.9764156342	20.0		0.0	0.0678400000001
30.55	19.9762363434	20.0		-0.00179008126725	0.1216
30.65	19.9762363434	20.0		0.0	0.17536
30.75	19.9762363434	20.0		0.0	0.22912
30.85	19.9762363434	20.0		0.0	0.28288
30.95	19.9762363434	20.0		0.0	0.33664
31.05	19.9762363434	20.0		0.0	0.3904
31.15	19.9760570526	20.0		-0.00177235761657	0.44416
31.25	19.9760570526	20.0		0.0	0.49792
31.35	19.9760570526	20.0		0.0	0.55168
31.45	19.9760570526	20.0		0.0	0.60544
31.55	19.9760570526	20.0		0.0	0.6592
31.65	19.9760570526	20.0		0.0	0.71296
31.75	19.9758777618	20.0		-0.00177235761657	0.76672
31.85	19.9665699005	20.0		-0.0930842235684	1.247035
31.95	19.9563655853	20.0		-0.102034628391	1.555425
32.05	19.974445343	20.0		0.1772531569	0.45025
32.15	19.9875125885	20.0		0.130675926805	0.41871
32.25	19.98787117	20.0		0.00350996316411	0.89184
32.35	19.9900188446	20.0		0.02148097381	0.82393
32.45	19.9982528687	20.0		0.0823437348008	0.43613
32.55	20.0038013458	20.0		0.0549430847168	0.75488
32.65	20.0070228577	20.0		0.0322214588523	0.75488
32.75	20.0150775909	20.0		0.0805536583066	0.0439550000001
32.85	20.0224170685	20.0		0.0726666674018	0.156715
32.95	20.0225963593	20.0		0.00179008126725	0.283165
33.05	20.0225963593	20.0		0.0	0.26352
33.15	20.0225963593	20.0		0.0	0.212
33.25	20.0225963593	20.0		0.0	0.16048
33.35	20.0225963593	20.0		0.0	0.10896
33.45	20.0225963593	19.999		0.0	0.0574400000001
33.55	20.0225963593	19.997		0.0	0.0574400000001
33.65	20.0225963593	19.994		0.0	0.0574400000001
33.75	20.0225963593	19.989		0.0	-0.20592
33.85	20.024564743	19.983		0.0196908935905	-0.602645
33.95	19.9986076355	19.975		-0.256991833448	0.48774
34.05	19.9837493896	19.967		-0.14857673645	0.57272
34.15	19.9830341339	19.957		-0.00716032506898	0.57272
34.25	19.9808864594	19.946		-0.0212682932615	0.57272
34.35	19.9758739471	19.933		-0.0501222796738	-0.357745
34.45	19.9730091095	19.92		-0.0286413002759	-1.05827
34.55	19.9558238983	19.905		-0.170146346092	-0.63954
34.65	19.946516037	19.889		-0.0921625941992	-1.13205
34.75	19.9339847565	19.871		-0.125305682421	-1.177065
34.85	19.9200229645	19.853		-0.138243898749	-1.37182
34.95	19.901763916	19.833		-0.182588279247	-1.35408
35.05	19.8733024597	19.812		-0.281804889441	-1.037285
35.15	19.8434085846	19.79		-0.298943579197	-0.987205
35.25	19.8160209656	19.767		-0.273882418871	-1.106545
35.35	19.7861270905	19.742		-0.29308193922	-0.992395
35.45	19.7616024017	19.717		-0.245241135359	-1.305475
35.55	19.735824585	19.69		-0.257771670818	-1.271005
35.65	19.7220401764	19.662		-0.136471539736	-1.961575
35.75	19.7041397095	19.633		-0.179008126259	-2.09283
35.85	19.6751403809	19.603		-0.289993196726	-1.86816
35.95	19.6402339935	19.571		-0.345609724522	-1.725265
36.05	19.6038951874	19.539		-0.361596405506	-1.77794
36.15	19.5700626373	19.506		-0.338325351477	-1.88457
36.25	19.5385570526	19.471		-0.31193497777	-2.11255
36.35	19.5052623749	19.436		-0.332955121994	-2.170115
36.45	19.4698181152	19.399		-0.350926786661	-2.2144
36.55	19.4315109253	19.361		-0.383077383041	-2.243165
36.65	19.3932037354	19.322		-0.383077383041	-2.301565
36.75	19.3538227081	19.283		-0.389918655157	-2.40512
36.85	19.3135452271	19.242		-0.402768284082	-2.429405
36.95	19.2700462341	19.2		-0.434989720583	-2.388535
37.05	19.2256526947	19.157		-0.439544677734	-2.45209
37.15	19.1823329926	19.113		-0.433199673891	-2.526685
37.25	19.1374015808	19.068		-0.447520315647	-2.567165
37.35	19.0924701691	19.022		-0.444861769676	-2.6528
37.45	19.0450325012	18.976		-0.474371522665	-2.659165
37.55	18.9984912872	18.928		-0.465421140194	-2.695165
37.65	18.9508743286	18.879		-0.474371522665	-2.823715
37.75	18.8994998932	18.829		-0.513753354549	-2.701175
37.85	18.8490200043	18.779		-0.499804854393	-2.8416
37.95	18.7976455688	18.727		-0.511963248253	-2.839005
38.05	18.7441215515	18.675		-0.53523427248	-2.81865
38.15	18.690776825	18.621		-0.528162539005	-2.873085
38.25	18.6368961334	18.567		-0.537024378777	-2.9408
38.35	18.5846252441	18.512		-0.520913660526	-3.07143
38.45	18.5300273895	18.456		-0.540569067001	-3.048
38.55	18.4734611511	18.399		-0.565665721893	-3.040925
38.65	18.4122409821	18.341		-0.612207770348	-2.9213
38.75	18.352273941	18.282		-0.591967463493	-2.98313
38.85	18.2948131561	18.222		-0.574616074562	-3.16631
38.95	18.2359199524	18.162		-0.581333339214	-3.179075
39.05	18.1746997833	18.101		-0.610417664051	-3.131165
39.15	18.1158065796	18.039		-0.58893674612	-3.28695
39.25	18.0549430847	17.976		-0.602601587772	-3.304195
39.35	17.9917526245	17.912		-0.630108594894	-3.304195
39.45	17.9294586182	17.848		-0.622948229313	-3.391395
39.55	17.8646583557	17.782		-0.639821052551	-3.391395
39.65	17.7991409302	17.716		-0.655169725418	-3.3976
39.75	17.7991409302	17.649		-0.655169725418	-3.43568
39.85	17.7338027954	17.582		-0.653379619122	-6.69662
39.95	17.6587982178	17.513		-0.740845561028	-4.34036
40.05	17.5836143494	17.444		-0.751834154129	-4.48347
40.15	17.501449585	17.375		-0.819857180119	-4.17023
40.25	17.417137146	17.304		-0.84312826395	-4.033235
40.35	17.3319301605	17.233		-0.850288629532	-3.94191
40.45	17.2418899536	17.161		-0.889723539352	-3.12382
40.55	17.1552505493	17.088		-0.856048762798	-4.01632
40.65	17.0695056915	17.015		-0.857448935509	-3.16321
40.75	16.983581543	16.94		-0.848959326744	-3.080505
40.85	16.9024906158	16.866		-0.809116721153	-3.093675
40.95	16.8212203979	16.79		-0.812696874142	-2.899915
41.05	16.746931076	16.714		-0.735528409481	-3.11703
41.15	16.6731796265	16.638		-0.735723376274	-3.05175
41.25	16.6021137238	16.56		-0.710662305355	-3.133135
41.35	16.5340900421	16.482		-0.673495829105	-3.36707
41.45	16.4657096863	16.404		-0.683811068535	-3.46403
41.55	16.3980445862	16.324		-0.668178796768	-3.86776
41.65	16.3303794861	16.245		-0.674860596657	-3.35776
41.75	16.2612819672	16.164		-0.689181268215	-4.11608
41.85	16.1891422272	16.083		-0.70550262928	-4.068475
41.95	16.113779068	16.002		-0.751834154129	-4.12197
42.05	16.036447525	15.919		-0.771525025368	-4.142345
42.15	15.9589366913	15.837		-0.759907007217	-4.40725
42.25	15.8758773804	15.753		-0.828807651997	-4.258205
42.35	15.7953233719	15.67		-0.805536568165	-4.519625
42.45	15.7115478516	15.585		-0.829463362694	-4.51808
42.55	15.625623703	15.5		-0.859239041805	-4.564765
42.65	15.5375518799	15.415		-0.870227634907	-4.546295
42.75	15.4484062195	15.329		-0.891460478306	-4.490065
42.85	15.3581857681	15.243		-0.900410830975	-4.53378
42.95	15.2647438049	15.156		-0.923398375511	-4.394475
43.05	15.171122551	15.069		-0.934422433376	-4.335115
43.15	15.0776805878	14.981		-0.934422433376	-3.880915
43.25	14.9874601364	14.893		-0.884510755539	-4.35904
43.35	14.8979558945	14.804		-0.895040631294	-4.35904
