%1-Time(seg)	2-Pos_Encoder	3-x_ref	4-Velo_Encoder(m/s)	5-Torque(N.m)
3.4	0.0	0.0		0.0	0.0
3.5	0.0	0.003		0.0	0.0
3.6	0.0	0.011		0.0	0.0
3.7	0.0	0.026		0.0	0.0
3.8	0.0	0.045		0.0	0.6777485
3.9	0.0	0.07		0.0	1.054232575
4.0	-0.00107404892333	0.1		-0.0106341466308	1.62374515875
4.1	0.0123515604064	0.135		0.134256094694	1.95482857144
4.2	0.0259561799467	0.175		0.136046171188	2.46161310715
4.3	0.0524493828416	0.221		0.262308895588	2.82073939822
4.4	0.0819857269526	0.27		0.293573349714	3.3055207292
4.5	0.126379743218	0.325		0.437772363424	3.54475657814
4.6	0.184199362993	0.384		0.578196227551	3.66396271016
4.7	0.25150641799	0.447		0.66640651226	3.70930596957
4.8	0.327405869961	0.515		0.751479685307	3.73730868631
4.9	0.409928619862	0.587		0.817056775093	3.71711615884
5.0	0.494241446257	0.663		0.841338157654	3.78755127148
5.1	0.582313418388	0.743		0.871999979019	3.83139107216
5.2	0.676650702953	0.827		0.932260155678	3.77027723247
5.3	0.769376933575	0.915		0.927262127399	3.87851875461
5.4	0.867294371128	1.007		0.969479680061	3.87826093958
5.5	0.963779747486	1.102		0.963063716888	3.98225717281
5.6	1.06706738472	1.2		1.03108668327	3.96114972776
5.7	1.16391074657	1.302		0.958845496178	4.16108862749
5.8	1.26737749577	1.407		1.03287696838	4.25181463237
5.9	1.37084424496	1.515		1.02442264557	4.37935983457
6.0	1.47592198849	1.626		1.05077767372	4.54177767556
6.1	1.58690702915	1.74		1.10985040665	4.610319954
6.2	1.70397830009	1.856		1.15912187099	4.6110102293
6.3	1.81979656219	1.976		1.158182621	4.70826660318
6.4	1.93991100788	2.098		1.20114457607	4.79638397143
6.5	2.064858675	2.222		1.23533332348	4.80218703714
6.6	2.19177532196	2.349		1.26737761497	4.81984641672
6.7	2.32155609131	2.478		1.29601883888	4.83914513752
6.8	2.45491719246	2.609		1.3186340332	4.82941831188
6.9	2.59078431129	2.742		1.35688149929	4.32395549035
7.0	2.72808361053	2.877		1.35939824581	4.49971597066
7.1	2.86287665367	3.013		1.34793114662	4.5788081868
7.2	2.99784874916	3.152		1.33458530903	4.61439968406
7.3	3.13317894936	3.292		1.33990240097	4.63041585783
7.4	3.26743507385	3.433		1.34256088734	5.28930438602
7.5	3.40419721603	3.576		1.36762213707	5.28259197371
7.6	3.54418158531	3.72		1.3842113018	5.32337613817
7.7	3.68882012367	3.865		1.44459557533	5.30249201218
7.8	3.84026098251	4.011		1.51440870762	5.19241390548
7.9	3.9904487133	4.157		1.48523569107	5.17459725747
8.0	4.14385890961	4.305		1.51713824272	4.71516451586
8.1	4.29709005356	4.453		1.53230953217	4.87657603214
8.2	4.45067882538	4.602		1.51891040802	4.94921121446
8.3	4.60104560852	4.752		1.4887804985	4.98189704651
8.4	4.75177049637	4.901		1.4905526638	4.99660567093
8.5	4.89068078995	5.051		1.38910317421	5.00322455192
8.6	5.03048610687	5.201		1.39805352688	5.55361529836
8.7	5.17333459854	5.351		1.41256904602	5.64147763426
8.8	5.31779432297	5.501		1.44459557533	5.72312918542
8.9	5.46422290802	5.651		1.46249628067	5.81714113344
9.0	5.61118841171	5.8		1.45333325863	5.91310726005
9.1	5.75976514816	5.949		1.4839771986	5.95297826702
9.2	5.91066884995	6.097		1.50724852085	5.96806572016
9.3	6.06049871445	6.245		1.48346340656	6.03066632407
9.4	6.21426677704	6.392		1.53588962555	5.96554834583
9.5	6.3657078743	6.538		1.49941456318	5.94928850562
9.6	6.51965475082	6.683		1.53946983814	5.38391132753
9.7	6.67037963867	6.826		1.50545835495	5.58530409739
9.8	6.81555509567	6.969		1.43560957909	5.67593084383
9.9	6.95876169205	7.11		1.43027484417	5.71671287972
10.0	7.10322141647	7.25		1.44459557533	5.73506479587
10.1	7.24392175674	7.389		1.39130079746	5.74332315814
10.2	7.37978887558	7.525		1.35867166519	5.74703942116
10.3	7.51118087769	7.66		1.31391978264	5.74871173952
10.4	7.63791847229	7.793		1.25305688381	6.32294378279
10.5	7.76447725296	7.924		1.26558756828	6.40523545225
10.6	7.89944934845	8.053		1.33458530903	6.25100695351
10.7	8.03352642059	8.18		1.33898067474	5.63084787908
10.8	8.1720790863	8.304		1.38373291492	5.79005754559
10.9	8.31188488007	8.426		1.38243889809	5.86170189551
11.0	8.45061588287	8.545		1.3718047142	5.24226060298
11.1	8.58487224579	8.662		1.34256088734	4.97998452134
11.2	8.70838737488	8.776		1.22292661667	4.9192455346
11.3	8.82742786407	8.887		1.17684555054	4.81009224057
11.4	8.93984508514	8.995		1.12238097191	4.73366300826
11.5	9.04599666595	9.1		1.05100810528	4.72117085372
11.6	9.14463043213	9.201		0.974796652794	4.77405838417
11.7	9.24111557007	9.3		0.963063716888	4.76756652288
11.8	9.33563232422	9.395		0.935804843903	4.73197793529
11.9	9.42907428741	9.486		0.923398375511	4.65362057088
12.0	9.51804161072	9.574		0.880861759186	4.5935437569
12.1	9.61005210876	9.658		0.920101761818	4.3877536906
12.2	9.69669246674	9.738		0.86460930109	4.24271941077
12.3	9.77742481232	9.814		0.797560930252	4.18199973485
12.4	9.85529327393	9.886		0.778685331345	4.05449338068
12.5	9.93172931671	9.954		0.764364778996	3.85132977131
12.6	10.0067338943	10.017		0.742617845535	3.60841964709
12.7	10.0754728317	10.076		0.687391161919	3.42619659119
12.8	10.1400947571	10.13		0.646219372749	3.20399296604
12.9	10.1988096237	10.18		0.581333339214	3.00000458472
13.0	10.2498273849	10.225		0.508383095264	2.88479081312
13.1	10.2976226807	10.265		0.473219513893	2.6860341159
13.2	10.3414793015	10.3		0.438569933176	2.48104960216
13.3	10.3799657822	10.33		0.383077383041	2.24349932097
13.4	10.4120082855	10.355		0.317252039909	2.05603219444
13.5	10.425075531	10.375		0.130675926805	2.2185174875
13.6	10.4461984634	10.389		0.211229592562	1.96895361937
13.7	10.4538955688	10.397		0.0762113779783	1.94311262872
13.8	10.4671421051	10.4		0.1324660182	1.61588043292
13.9	10.4789562225	10.4		0.118145368993	1.23543694482
14.0	10.4855794907	10.4		0.065577223897	0.942219875167
14.1	10.489159584	10.4		0.0354471541941	0.748837193825
14.2	10.4914865494	10.4		0.02148097381	0.552626237221
14.3	10.4954242706	10.4		0.0389918722212	0.28301280675
14.4	10.4954242706	10.4		0.0	0.114771763037
14.5	10.4954242706	10.4		0.0	0.114771763037
14.6	10.4954242706	10.4		0.0	0.114771763037
14.7	10.4954242706	10.4		0.0	-0.281753517985
14.8	10.4959611893	10.4		0.00531707331538	-0.490493083093
14.9	10.4741220474	10.4		-0.216599836946	-0.727533137392
15.0	10.4461965561	10.4		-0.279252678156	-0.361462411826
15.1	10.4320545197	10.4		-0.140016257763	0.0562969146782
15.2	10.4320545197	10.4		-0.140016257763	0.0616831116052
15.3	10.4311590195	10.4		-0.00895040575415	0.0616831116052
15.4	10.4261465073	10.4		-0.0501222796738	-0.2354410574
15.5	10.4234609604	10.4		-0.0265853628516	-0.29526672583
15.6	10.419880867	10.4		-0.0358016230166	0.196428723377
15.7	10.4154052734	10.4		-0.0447520315647	0.0144729255195
15.8	10.4154052734	10.4		0.0	0.0144729255195
15.9	10.4148683548	10.4		-0.00537024345249	-0.104253232582
16.0	10.4123620987	10.4		-0.0248130038381	-0.120833954662
16.1	10.4116458893	10.4		-0.00716032506898	-0.128295279598
16.2	10.3987569809	10.4		-0.128885835409	-0.131652875819
16.3	10.3745908737	10.4		-0.239268273115	0.518517455881
16.4	10.3620605469	10.4		-0.125305682421	0.742487105147
16.5	10.3599128723	10.4		-0.02148097381	0.714317697316
16.6	10.3488140106	10.4		-0.109886169434	1.00259871379
16.7	10.3450546265	10.4		-0.0375917032361	1.10658242121
16.8	10.3434438705	10.4		-0.0161107294261	1.20314458954
16.9	10.3513202667	10.4		0.0779837444425	1.07322106529
17.0	10.3581228256	10.4		0.0680230855942	1.03290272938
17.1	10.364566803	10.4		0.0644429177046	1.00675147822
17.2	10.3688631058	10.4		0.04211955145	1.0565531652
17.3	10.3753070831	10.4		0.0644429177046	1.03087742434
17.4	10.3828258514	10.4		0.0744390264153	0.503629590953
17.5	10.3899860382	10.4		0.0716032460332	0.704649315929
17.6	10.3937454224	10.4		0.0375917032361	0.795108192168
17.7	10.3949985504	10.4		0.012406501919	0.835814686476
17.8	10.3982210159	10.4		0.0322214588523	0.854132608914
17.9	10.4016218185	10.4		0.0340115427971	0.862375674011
18.0	10.4048442841	10.4		0.0319024398923	0.866085053305
18.1	10.4112882614	10.4		0.0644429177046	0.867754273987
18.2	10.4182691574	10.4		0.069813169539	0.868505423294
18.3	10.422744751	10.4		0.0443089418113	0.269296690482
18.4	10.4248924255	10.4		0.02148097381	0.322401010717
18.5	10.4248924255	10.403		0.0	0.350560454823
18.6	10.4248924255	10.411		0.0	0.41063395467
18.7	10.4248924255	10.426		0.0	0.931448779602
18.8	10.4261455536	10.445		0.012406501919	0.780127950821
18.9	10.4291887283	10.47		0.0304313823581	0.712033577869
19.0	10.4345588684	10.5		0.0537024401128	1.59374486004
19.1	10.4433298111	10.535		0.0850731730461	1.99352068702
19.2	10.4553232193	10.575		0.119935445487	2.45750305916
19.3	10.4721498489	10.62		0.168267652392	2.96118312662
19.4	10.4938097	10.669		0.212352767587	3.51106315698
19.5	10.5219135284	10.723		0.28104275465	4.05793467064
19.6	10.5609369278	10.782		0.390237748623	4.50798335179
19.7	10.6115961075	10.845		0.496659815311	4.8556585083
19.8	10.6721010208	10.912		0.605047464371	5.15950407874
19.9	10.742272377	10.984		0.686197817326	5.37857508543
20.0	10.8228263855	11.059		0.803746461868	5.50458553844
20.1	10.9112567902	11.139		0.882510006428	5.5785492423
20.2	11.0038042068	11.222		0.914536595345	5.68320090903
20.3	11.1067342758	11.309		1.02929675579	5.60317540907
20.4	11.2146759033	11.399		1.07941901684	5.51205668408
20.5	11.323513031	11.493		1.07582116127	5.45973975784
20.6	11.4368247986	11.59		1.13312149048	5.36641314103
20.7	11.551568985	11.691		1.14565193653	5.25729141346
20.8	11.662733078	11.794		1.09886169434	5.30989263606
20.9	11.7747917175	11.901		1.12059092522	4.81348868623
21.0	11.8804063797	12.01		1.04391849041	5.6283941588
21.1	11.9878110886	12.122		1.07404875755	5.67888462146
21.2	12.0991544724	12.237		1.11343050003	5.73724532966
21.3	12.209602356	12.355		1.0935447216	5.87858139835
21.4	12.3229141235	12.474		1.13133144379	6.03565787926
21.5	12.4433870316	12.597		1.20472466946	6.03204279567
21.6	12.5606374741	12.721		1.15912187099	6.21647550805
21.7	12.6843318939	12.847		1.23515617847	6.28223322862
21.8	12.8069524765	12.976		1.2262057066	6.41807870288
21.9	12.9351224899	13.106		1.26723563671	6.5019626663
22.0	13.0641870499	13.238		1.28885853291	6.59875844983
22.1	13.1955785751	13.371		1.31391978264	6.67652930242
22.2	13.3310880661	13.506		1.33990240097	6.71113568609
22.3	13.4707145691	13.643		1.39447331429	6.68071480874
22.4	13.6081924438	13.78		1.35939824581	6.79780166393
22.5	13.7496089935	13.919		1.41416406631	6.76327449877
22.6	13.8908462524	14.059		1.41058409214	6.82021902445
22.7	14.0322628021	14.2		1.3983900547	6.889335311
22.8	14.1767225266	14.341		1.44280552864	6.86696388995
22.9	14.3231515884	14.483		1.46249628067	6.35581100048
23.0	14.4647474289	14.626		1.38819038868	6.52901095021
23.1	14.6033000946	14.77		1.38373291492	7.2064976776
23.2	14.7427473068	14.913		1.39268326759	7.24075295492
23.3	14.8889970779	15.057		1.43206501007	7.14110507971
23.4	15.039721489	15.201		1.50545835495	6.55281128587
23.5	15.1908044815	15.345		1.49586975574	6.70882907864
23.6	15.3375911713	15.489		1.46607649326	6.77903708539
23.7	15.488494873	15.633		1.50903844833	6.81063068843
23.8	15.6381454468	15.776		1.47991871834	6.82484780979
23.9	15.7865428925	15.919		1.4839771986	6.83124551441
24.0	15.937625885	16.061		1.50903844833	6.83412448148
24.1	16.0860233307	16.202		1.46928441525	6.18373876667
24.2	16.2319145203	16.343		1.45712602139	6.168210195
24.3	16.3778057098	16.483		1.4589163065	6.08158233775
24.4	16.5210113525	16.622		1.41611373425	6.00893430199
24.5	16.6597423553	16.759		1.3873128891	5.98202043589
24.6	16.7982940674	16.896		1.38373291492	5.89702594615
24.7	16.9318332672	17.031		1.30921626091	5.90646342577
24.8	17.0628681183	17.164		1.30854940414	5.9180335416
24.9	17.1926498413	17.296		1.28318691254	5.89189284372
25.0	17.3208198547	17.426		1.28169822693	5.89607677967
25.1	17.4514961243	17.555		1.30496931076	5.79703455085
25.2	17.5794868469	17.681		1.26723563671	5.74773279788
25.3	17.707118988	17.805		1.27632796764	5.62631325905
25.4	17.830991745	17.927		1.23873639107	5.57470496657
25.5	17.9534339905	18.047		1.2122926712	5.51944923496
25.6	18.0742645264	18.164		1.20651483536	5.43648490573
25.7	18.1934833527	18.279		1.19040417671	5.33128370758
25.8	18.3075122833	18.391		1.12721955776	5.28327766841
25.9	18.4193916321	18.501		1.11701071262	5.25201420078
26.0	18.5296611786	18.607		1.09177231789	5.15985114035
26.1	18.637960434	18.711		1.08120906353	5.04804651316
26.2	18.7399959564	18.811		1.02034628391	5.04673943092
26.3	18.8377342224	18.908		0.965934872627	5.02749524391
26.4	18.9379787445	19.002		1.00244545937	4.87230710976
26.5	19.0344638824	19.093		0.96485376358	4.76597169939
26.6	19.1293373108	19.179		0.939349472523	4.60949026473
26.7	19.2220630646	19.263		0.925472080708	4.38237586913
26.8	19.312461853	19.342		0.902200937271	4.19351364111
26.9	19.3999977112	19.417		0.866682887077	3.9187398885
27.0	19.4823417664	19.489		0.823437333107	3.69894619982
27.1	19.5602111816	19.556		0.76920324564	3.48627428992
27.2	19.6323509216	19.619		0.72140276432	3.27795118046
27.3	19.6950035095	19.677		0.626528441906	3.17823003121
27.4	19.7556877136	19.732		0.600829184055	2.96152176404
27.5	19.8095684052	19.781		0.538814425468	2.84533604382
27.6	19.8589744568	19.826		0.494062423706	2.67942521972
27.7	19.903011322	19.866		0.43599998951	2.53473659887
27.8	19.9422149658	19.901		0.388146311045	2.38329871949
27.9	19.9762268066	19.931		0.340115427971	2.23005567377
28.0	20.0039730072	19.955		0.274715423584	2.1032995532
28.1	20.0075531006	19.975		0.0358016230166	2.44260579894
28.2	20.0480098724	19.989		0.404558360577	1.65802760952
28.3	20.0621509552	19.997		0.140016257763	1.56565642429
28.4	20.0838108063	20.0		0.216599836946	1.06921189093
28.5	20.087928772	20.0		0.0407642312348	0.957998100918
28.6	20.0907936096	20.0		0.0286413002759	0.738865395413
28.7	20.0972385406	20.0		0.0644429177046	0.424333927936
28.8	20.0997447968	20.0		0.0248130038381	0.190276517571
28.9	20.0999240875	20.0		0.00179008126725	0.014344432907
29.0	20.0999240875	20.0		0.0	0.014344432907
29.1	20.0999240875	20.0		0.0	0.014344432907
29.2	20.0999240875	20.0		0.0	-0.621911063551
29.3	20.1045780182	20.0		0.0465421117842	-0.974276228598
29.4	20.0746841431	20.0		-0.295983731747	-0.392526802869
29.5	20.0626907349	20.0		-0.119935445487	-0.436270061291
29.6	20.0508766174	20.0		-0.118145368993	-0.436270061291
29.7	20.032081604	20.0		-0.186097562313	-0.431138527581
29.8	20.032081604	20.0		-0.186097562313	-0.206758587411
29.9	20.0218772888	20.0		-0.102034628391	-0.217632864335
30.0	20.0020065308	20.0		-0.196731716394	0.148536711049
30.1	19.9846420288	20.0		-0.173637896776	0.148536711049
30.2	19.9789142609	20.0		-0.0572826005518	0.375627733987
30.3	19.9746189117	20.0		-0.0425365865231	0.339213480294
30.4	19.9746189117	20.0		0.0	0.283502066132
30.5	19.9746189117	20.0		0.0	0.28923192976
30.6	19.9746189117	20.0		0.0	0.322610368392
30.7	19.9746189117	20.0		0.0	0.368430665776
30.8	19.9746189117	20.0		0.0	0.419849799599
30.9	19.9746189117	20.0		0.0	0.47378840982
31.0	19.9746189117	20.0		0.0	0.528860784419
31.1	19.9746189117	20.0		0.0	0.584443352988
31.2	19.9746189117	20.0		0.0	0.640255508845
31.3	19.974439621	20.0		-0.00179008126725	0.72223822898
31.4	19.974439621	20.0		0.0	0.773631203041
31.5	19.9679946899	20.0		-0.0644429177046	0.985193541368
31.6	19.9597606659	20.0		-0.0823437348008	1.22317109362
31.7	19.9459762573	20.0		-0.136471539736	1.60423249213
31.8	19.924495697	20.0		-0.214809760451	2.17028012146
31.9	19.9420375824	20.0		0.175427958369	1.66373555466
32.0	19.9545688629	20.0		0.124065026641	1.4839347496
32.1	19.9658470154	20.0		0.112775117159	1.39963088732
32.2	19.9730072021	20.0		0.0716032460332	1.41395514929
32.3	19.9783782959	20.0		0.0526494495571	1.44604756718
32.4	19.9882240295	20.0		0.0984544679523	1.00176990523
32.5	19.9975318909	20.0		0.0921625941992	1.18753245735
32.6	20.0150737762	20.0		0.175427958369	1.27112560581
32.7	20.0304679871	20.0		0.153946980834	0.526725022614
32.8	20.0353012085	20.0		0.0478536561131	0.550386010176
32.9	20.0354804993	20.0		0.00177235761657	0.605569704579
33.0	20.041387558	20.0		0.0590726844966	0.430878867061
33.1	20.0431785583	20.0		0.0177235770971	0.354808990177
33.2	20.0431785583	20.0		0.0	0.30266404558
33.3	20.0431785583	20.0		0.0	0.226222820511
33.4	20.0433578491	20.0		0.00177235761657	0.13884826923
33.5	20.0433578491	19.999		0.0	0.0465537211534
33.6	20.0433578491	19.997		0.0	0.0465537211534
33.7	20.0433578491	19.994		0.0	-0.217092433966
33.8	20.0433578491	19.989		0.0	-0.381285345285
33.9	20.0517711639	19.983		0.0833008140326	-0.827887905378
34.0	20.0234870911	19.976		-0.282832860947	-0.26149080742
34.1	20.015789032	19.968		-0.076973490417	-0.459110863339
34.2	20.003616333	19.958		-0.120520323515	-0.493050888503
34.3	19.9814186096	19.947		-0.221970081329	-0.283926649826
34.4	19.957611084	19.935		-0.238080814481	0.153483757578
34.5	19.9472293854	19.921		-0.10279674083	0.153483757578
34.6	19.9278964996	19.906		-0.193328782916	0.153483757578
34.7	19.9060573578	19.89		-0.21838991344	-0.187565912591
34.8	19.8847560883	19.873		-0.210910573602	-0.206372660666
34.9	19.8745517731	19.855		-0.101024389267	-0.2148356973
35.0	19.8448371887	19.835		-0.2971534729	-0.218644063785
35.1	19.818523407	19.814		-0.260536581278	-0.220357828703
35.2	19.798116684	19.792		-0.204069256783	-0.221129022916
35.3	19.7825431824	19.769		-0.15419511497	-0.221476060312
35.4	19.7701911926	19.745		-0.123515605927	-0.221632227141
35.5	19.7619571686	19.72		-0.0823437348008	-0.221702502213
35.6	19.74817276	19.693		-0.136471539736	-0.951617125996
35.7	19.7300930023	19.665		-0.180798202753	-1.0583049567
35.8	19.7009143829	19.636		-0.291783213615	-0.968049980514
35.9	19.6822967529	19.606		-0.182518079877	-1.24999099123
36.0	19.6531181335	19.575		-0.291783213615	-1.28429119605
36.1	19.6237602234	19.543		-0.293573349714	-1.39223353822
36.2	19.5868854523	19.51		-0.363333314657	-1.3357768422
36.3	19.553768158	19.475		-0.329374939203	-1.45223557899
36.4	19.5145645142	19.44		-0.390237748623	-1.45458101055
36.5	19.4742870331	19.403		-0.398780465126	-1.41863795475
36.6	19.4313259125	19.366		-0.425365805626	-1.39313557964
36.7	19.3880062103	19.327		-0.428910583258	-1.36493951084
36.8	19.3584690094	19.287		-0.295363426208	-1.71914802988
36.9	19.3033351898	19.247		-0.551345050335	-0.950867863444
37.0	19.2782745361	19.205		-0.246357709169	-1.95669528855
37.1	19.2217082977	19.162		-0.565665721893	-1.09595612985
37.2	19.1825046539	19.118		-0.392027765512	-1.79950450843
37.3	19.1402587891	19.074		-0.414175659418	-1.79988427879
37.4	19.099445343	19.028		-0.408138513565	-1.88782967546
37.5	19.058631897	18.981		-0.408138513565	-2.06201485396
37.6	19.0167446136	18.933		-0.414731681347	-2.20373893428
37.7	18.9689502716	18.885		-0.476161628962	-2.22421052043
37.8	18.9175758362	18.835		-0.506894230843	-2.19957298419
37.9	18.8629779816	18.785		-0.54597479105	-2.15139959289
38.0	18.8056945801	18.733		-0.572825968266	-2.0694030668
38.1	18.7494869232	18.681		-0.556520223618	-1.63368313006
38.2	18.6970367432	18.627		-0.52449375391	-1.80576540853
38.3	18.6458396912	18.573		-0.510173141956	-1.88320243384
38.4	18.5950012207	18.518		-0.50157725811	-2.49152859523
38.5	18.5425510406	18.462		-0.52449375391	-2.48489361785
38.6	18.4852676392	18.405		-0.572825968266	-2.40797962803
38.7	18.4344291687	18.347		-0.503349542618	-2.59317033262
38.8	18.3778629303	18.289		-0.563875555992	-2.65918114968
38.9	18.3177165985	18.229		-0.601467251778	-2.63988101735
39.0	18.2541694641	18.169		-0.627414643764	-2.59771745781
39.1	18.1913375854	18.108		-0.628318548203	-2.60146710601
39.2	18.1295795441	18.046		-0.611463308334	-2.68285219771
39.3	18.068359375	17.983		-0.612207770348	-2.74657948897
39.4	18.0008735657	17.92		-0.674860596657	-2.22888127004
39.5	17.9362506866	17.855		-0.631793379784	-2.38160457152
39.6	17.8703765869	17.79		-0.656959891319	-2.45033005718
39.7	17.8030700684	17.724		-0.671280443668	-2.48125652573
39.8	17.7348670959	17.657		-0.668648004532	-2.49517343658
39.9	17.6650543213	17.59		-0.698131680489	-2.50143604646
40.0	17.5968513489	17.521		-0.682020962238	-2.50425422091
40.1	17.5230998993	17.452		-0.730211377144	-2.50552239941
