%1-Time(seg)	2-Pos_Encoder	3-x_ref	4-Velo_Encoder(m/s)	5-Torque(N.m)
2.93	0.0	0.0		0.0	0.0
2.94	0.0	0.0		0.0	0.0
3.04	0.0	0.003		0.0	0.0
3.13	0.0	0.011		0.0	0.0674684659091
3.23	0.0	0.026		0.0	0.172452908493
3.33	0.0	0.045		0.0	0.323940578266
3.43	0.0	0.07		0.0	0.411997204389
3.53	0.0	0.1		0.0	0.867744357555
3.63	0.0	0.135		0.0	1.2519527491
3.73	0.0	0.175		0.0	1.70678938635
3.83	0.0118145374581	0.221		0.116975605488	2.08890018297
3.93	0.0270302277058	0.27		0.15215690434	2.57561880461
4.03	0.0400978215039	0.325		0.129382103682	3.09773649205
4.13	0.0640849098563	0.384		0.237495943904	3.6343569282
4.23	0.0984544754028	0.447		0.343695580959	4.10136242899
4.33	0.149471789598	0.515		0.510173141956	4.48028688416
4.43	0.212482661009	0.587		0.62386995554	4.86229786273
4.53	0.289993166924	0.663		0.773315131664	5.12225967784
4.63	0.387194573879	0.743		0.972014188766	5.22881450228
4.73	0.493883430958	0.827		1.05632507801	5.33226126173
4.83	0.611670792103	0.915		1.17787349224	5.32459219341
4.93	0.734470367432	1.007		1.21406507492	5.33662413679
5.03	0.862461209297	1.102		1.27811801434	5.28069045467
5.13	0.994748234749	1.2		1.3228700161	5.16694952634
5.23	1.13401651382	1.302		1.37712192535	4.7035872571
5.33	1.27167379856	1.407		1.37657237053	4.61124147327
5.44	1.41201615334	1.515		1.40163362026	4.52248898498
5.53	1.54913640022	1.626		1.3576259613	4.5439706514
5.63	1.68267643452	1.74		1.33361053467	4.58893371496
5.73	1.81675350666	1.857		1.33898067474	4.29410625694
5.83	1.94689238071	1.976		1.28673171997	4.20484259423
5.93	2.07542014122	2.098		1.28527832031	4.07475769591
6.03	2.19607162476	2.222		1.20651483536	4.08963568249
6.13	2.32191443443	2.349		1.23199701309	3.99836736777
6.23	2.44471406937	2.478		1.2262057066	3.98014768289
6.33	2.56590247154	2.609		1.19988620281	3.98581404895
6.43	2.68225765228	2.742		1.1635529995	4.05934885774
6.53	2.80129814148	2.877		1.19040417671	4.35771015047
6.64	2.91998052597	3.013		1.1733007431	4.49809040387
6.74	3.03597784042	3.152		1.158182621	4.49809040387
6.84	3.15483927727	3.292		1.1886138916	4.60021558361
6.94	3.15483927727	3.433		1.1886138916	4.69355989717
7.03	3.27298474312	3.576		1.16798377037	4.7646227793
7.14	3.39095115662	3.72		1.17787349224	4.81302935545
7.23	3.51106572151	3.865		1.20114457607	9.00655948964
7.33	3.63869857788	4.011		1.26369094849	5.85775686216
7.43	3.77760887146	4.157		1.38910317421	6.81222420094
7.53	3.92314243317	4.305		1.43915438652	6.98449050695
7.63	4.07708930969	4.453		1.53767979145	7.11544981985
7.73	4.23569059372	4.602		1.5860118866	7.19629363523
7.83	4.4028840065	4.752		1.65360975266	7.23617841677
7.93	4.57616376877	4.901		1.73279869556	7.19901252345
8.03	4.75391864777	5.051		1.77576065063	7.08792002159
8.14	4.93525409698	5.201		1.77604150772	7.03245413763
8.23	5.11820030212	5.351		1.82767295837	6.84929140417
8.33	5.30454778671	5.501		1.86168456078	6.42377342094
8.43	5.49393844604	5.651		1.87338197231	6.25456197772
8.53	5.68726730347	5.8		1.93149769306	6.06576387353
8.63	5.88077497482	5.949		1.93328773975	5.58246856843
8.73	6.07911586761	6.097		1.9816198349	5.08381406429
8.84	6.27333974838	6.245		1.92123556137	4.63908411107
8.93	6.4641623497	6.392		1.88756096363	4.17864923557
9.03	6.64281225204	6.538		1.76704037189	3.81338434655
9.13	6.81161689758	6.683		1.6880466938	3.45234634832
9.23	6.98077964783	6.826		1.67310547829	3.00992628233
9.33	7.13794898987	6.969		1.56990122795	2.65723133529
9.43	7.2922539711	7.11		1.54125988483	2.29718502933
9.53	7.42830038071	7.25		1.34521949291	2.12399917103
9.63	7.56076622009	7.389		1.32466006279	1.8699723418
9.73	7.68088054657	7.525		1.19935441017	1.76979443582
9.84	7.78613710403	7.66		1.04037392139	1.75981121768
9.93	7.88638162613	7.793		1.00244545937	1.77539273468
10.03	7.97874975204	7.924		0.912764191628	1.86236915526
10.13	8.06467342377	8.053		0.857448935509	2.00345731928
10.23	8.14325809479	8.18		0.784055531025	2.23833605046
10.33	8.21146011353	8.304		0.675268232822	2.74001888198
10.43	8.2938041687	8.426		0.821647286415	2.75557058447
10.53	8.36308002472	8.545		0.684130072594	2.93846582707
10.63	8.42770195007	8.662		0.639821052551	3.52636932385
10.74	8.48981761932	8.776		0.621158123016	4.04164486794
10.83	8.56356906891	8.887		0.737513482571	4.40598738443
10.94	8.64412307739	8.995		0.79578858614	4.77534249925
11.03	8.73362731934	9.1		0.895040631294	5.05534474785
11.14	8.83494567871	9.202		1.00315451622	5.24030725945
11.24	8.9464673996	9.3		1.11343050003	5.32289990913
11.34	9.06604480743	9.395		1.18216252327	5.3102823518
11.44	9.19564628601	9.486		1.28141450882	5.18028415839
11.54	9.3234577179	9.574		1.27811801434	5.04327770925
11.64	9.45288085938	9.658		1.2924387455	4.85079458773
11.74	9.58839035034	9.738		1.33990240097	4.50190376979
11.84	9.71906661987	9.814		1.30675923824	4.07839972744
11.94	9.84705734253	9.886		1.27811801434	3.87105636508
12.04	9.97397422791	9.954		1.25660145283	3.31736648501
12.14	10.0854959488	10.017		1.11343050003	2.9496893373
12.24	10.2002401352	10.076		1.13608121872	2.35237059158
12.34	10.3049602509	10.13		1.04540741444	1.83288846772
12.44	10.4130811691	10.18		1.07941901684	1.10045880997
12.54	10.5097455978	10.225		0.957073092461	0.481940223855
12.64	10.5860033035	10.265		0.762574613094	0.481940223855
12.74	10.6508045197	10.3		0.648009419441	0.481940223855
12.84	10.7018222809	10.33		0.503349542618	0.313427467363
12.94	10.7241983414	10.355		0.223760157824	0.313427467363
13.04	10.7317171097	10.375		0.0751834064722	-2.29222368091
13.14	10.7562408447	10.389		0.240432456136	-2.14210992216
13.24	10.7238407135	10.397		-0.324004709721	-2.18127912187
13.34	10.6787309647	10.4		-0.449310421944	-2.17872826389
13.44	10.628071785	10.4		-0.50157725811	-2.13689532606
13.54	10.5747270584	10.4		-0.533444166183	-2.02457870097
13.64	10.5213823318	10.4		-0.528162539005	-1.82688244132
13.74	10.47108078	10.4		-0.503012835979	-1.62240198903
13.84	10.4252548218	10.4		-0.458260804415	-1.29710296355
13.94	10.3794288635	10.4		-0.453723549843	-1.1660438238
14.04	10.3387937546	10.4		-0.406348437071	-1.10837545892
14.14	10.3067512512	10.4		-0.320424556732	-0.714759300895
14.24	10.2834806442	10.4		-0.230406492949	-0.49071915021
14.34	10.2634315491	10.4		-0.198504030704	-0.240584220868
14.44	10.24588871	10.4		-0.175427958369	0.0152459551853
14.54	10.2364015579	10.4		-0.0939349606633	0.208193217666
14.64	10.228345871	10.4		-0.0805536583066	0.432284469588
14.74	10.2224388123	10.4		-0.0590726844966	0.647726102304
14.84	10.2168893814	10.4		-0.0549430847168	0.874652764622
14.94	10.2199325562	10.4		0.0304313823581	1.00849179528
15.04	10.2229757309	10.4		0.0301300808787	1.17997351988
15.14	10.2231550217	10.4		0.00179008126725	1.38615681779
15.24	10.2231550217	10.4		0.0	1.58309019592
15.34	10.2253026962	10.4		0.0212682932615	1.75459028573
15.44	10.2399816513	10.4		0.146786674857	1.7788221572
15.54	10.2426671982	10.4		0.0268512200564	1.99107177973
15.64	10.2498273849	10.4		0.0708943083882	2.09567036471
15.74	10.2768573761	10.4		0.270302265882	1.97056377399
15.84	10.2961902618	10.4		0.193328782916	2.00139046209
15.94	10.3246526718	10.4		0.281804889441	1.86778743881
16.04	10.3504295349	10.4		0.257771670818	1.56178721702
16.14	10.381398201	10.4		0.307893961668	1.4157890802
16.24	10.3930339813	10.4		0.114073805511	1.47721140593
16.34	10.4016265869	10.4		0.0859238952398	1.48351459582
16.44	10.4172000885	10.4		0.15419511497	1.4262062447
16.54	10.4206008911	10.4		0.0340115427971	1.50009130896
16.64	10.4240016937	10.4		0.0340115427971	1.51599986191
16.74	10.4270448685	10.4		0.0301300808787	1.53061561555
16.84	10.4322357178	10.4		0.051912356168	1.52252091212
16.94	10.4352788925	10.4		0.0304313823581	1.54094328675
17.04	10.4393959045	10.4		0.0407642312348	1.53863132641
17.14	10.4420814514	10.4		0.0265853628516	1.55147533922
17.24	10.4467353821	10.4		0.0465421117842	1.54053989488
17.33	10.4517478943	10.4		0.0496260076761	1.53656624866
17.43	10.4560441971	10.4		0.0429619476199	1.54016320827
17.54	10.4603404999	10.4		0.0425365865231	1.54056392307
17.64	10.4649944305	10.4		0.0465421117842	1.53769736601
17.74	10.4683952332	10.4		0.0340115427971	1.54714588241
17.84	10.47108078	10.4		0.0265853628516	1.24663806612
17.94	10.4719762802	10.4		0.00895040575415	1.12987913507
18.04	10.4719762802	10.403		0.0	1.02625475199
18.14	10.4719762802	10.411		0.0	1.306744486
18.24	10.4719762802	10.426		0.0	1.44926382057
18.34	10.4728717804	10.445		0.00895040575415	1.62062855085
18.44	10.488445282	10.47		0.15419511497	1.61195164707
18.54	10.5020494461	10.5		0.136046171188	1.75280752117
18.64	10.5169067383	10.535		0.14857673645	1.85471716197
18.74	10.5383872986	10.575		0.210597798228	1.92662489898
18.84	10.5484113693	10.62		0.100244559348	2.12291672463
18.94	10.5620155334	10.669		0.133378595114	2.24299272644
19.04	10.5800952911	10.723		0.180798202753	2.70565598161
19.14	10.6108846664	10.782		0.307893961668	2.99709433819
19.24	10.6559944153	10.845		0.444861769676	3.23248725014
19.34	10.7098760605	10.912		0.538814425468	3.44206987547
19.44	10.7721710205	10.984		0.622948229313	3.63908529824
19.54	10.8427000046	11.059		0.69653648138	3.84048197581
19.64	10.917883873	11.139		0.751834154129	3.99603052478
19.74	10.9984378815	11.222		0.803746461868	4.20233903719
19.84	11.0863304138	11.309		0.868455171585	4.32106081523
19.94	11.1795940399	11.399		0.923398375511	4.45379314468
20.04	11.2750053406	11.493		0.944666683674	4.58390408755
20.14	11.38169384	11.59		1.06509840488	4.61366925576
20.24	11.4939317703	11.691		1.12238097191	4.62050266804
20.34	11.6052751541	11.794		1.10063397884	4.72872586265
20.44	11.7214517593	11.901		1.16176259518	4.70734109678
20.54	11.8390598297	12.01		1.17608332634	4.49707423679
20.64	11.9579210281	12.122		1.17507302761	4.4479393515
20.74	12.0737390518	12.237		1.1563924551	4.47695422434
20.84	12.1922426224	12.355		1.18503379822	4.48071295669
20.94	12.3096723557	12.475		1.16266667843	4.54030862919
21.04	12.4278173447	12.597		1.18145370483	4.55724467179
21.14	12.544172287	12.721		1.16176259518	4.61508635082
21.24	12.6585588455	12.847		1.13253641129	4.61508635082
21.34	12.6585588455	12.976		1.13253641129	8.34447629302
21.44	12.7844018936	13.106		1.24419486523	5.576672041
21.54	12.9114980698	13.238		1.25660145283	6.47198349992
21.64	13.0600748062	13.371		1.48576748371	6.40731934858
21.74	13.2099046707	13.506		1.49650800228	6.44678128913
21.84	13.3676109314	13.643		1.55967462063	6.42144416354
21.94	13.5299711227	13.78		1.62360358238	6.34198092534
22.04	13.7043247223	13.919		1.74174892902	6.06101017645
22.14	13.8806476593	14.059		1.74399995804	5.71931935121
22.24	14.0600137711	14.2		1.77412998676	5.5455074983
22.34	14.2388429642	14.341		1.78650105	5.43119207606
22.44	14.4146289825	14.483		1.7386828661	5.07678924104
22.54	14.591668129	14.626		1.76860022545	4.73165713922
22.64	14.7611885071	14.77		1.67665040493	4.52063264333
22.74	14.92927742	14.913		1.67909622192	4.22394164909
22.84	15.0905637741	15.057		1.61286318302	3.95711408624
22.94	15.2482700348	15.201		1.55967462063	3.75731909194
23.04	15.4066925049	15.345		1.5667642355	3.45352790558
23.14	15.5712013245	15.489		1.64329457283	3.02667949605
23.24	15.7183456421	15.633		1.45510554314	2.91640200494
23.34	15.8572559357	15.776		1.37357711792	2.79213113482
23.44	15.9882898331	15.919		1.31033945084	2.68567099168
23.54	16.1032123566	16.061		1.13785362244	2.81029577489
23.64	16.2208213806	16.202		1.16443896294	2.77854105924
23.74	16.3171272278	16.343		0.963063716888	3.06116238727
23.84	16.4213104248	16.483		1.02973985672	3.19160148388
23.94	16.5279998779	16.622		1.06509840488	3.50614148537
24.04	16.6112384796	16.759		0.82237392664	3.8391224776
24.14	16.6996688843	16.896		0.884300112724	3.90420863441
24.24	16.7891731262	17.031		0.893250524998	4.46377128942
24.34	16.880645752	17.164		0.905674695969	4.85382302098
24.44	16.980890274	17.296		1.00244545937	5.16513186545
24.54	17.0863265991	17.426		1.05435788631	5.50456882468
24.64	17.2039356232	17.555		1.16266667843	5.70343658121
24.74	17.3270931244	17.681		1.22978591919	5.90977051117
24.84	17.4566955566	17.805		1.29422879219	6.00780755402
24.94	17.5959644318	17.927		1.37889432907	6.03418703452
25.04	17.744720459	18.047		1.48576748371	5.92594481721
25.14	17.8904323578	18.164		1.44269919395	5.9195588579
25.24	18.0390090942	18.279		1.4839771986	5.76281111222
25.34	18.1911659241	18.391		1.5215690136	5.55902755555
25.44	18.3422489166	18.501		1.49409759045	5.1235224674
25.54	18.4899311066	18.607		1.47502696514	4.96297128283
25.64	18.6410140991	18.711		1.50903844833	4.73643631814
25.74	18.7858314514	18.811		1.43206501007	4.36955848936
25.84	18.9288597107	18.908		1.41434144974	3.9318468671
25.94	19.0632953644	19.002		1.34256088734	3.55524221539
26.04	19.1946868896	19.093		1.29913818836	3.11751314283
26.14	19.3158760071	19.179		1.19988620281	2.73149887824
26.24	19.4261455536	19.263		1.09177231789	2.32427547226
26.34	19.5364151001	19.342		1.10089993477	1.8636344294
26.44	19.6364803314	19.417		1.00065541267	1.40035680113
26.54	19.7252693176	19.489		0.879089355469	1.01575716389
26.64	19.7970523834	19.556		0.717822551727	0.747111366807
26.74	19.8534393311	19.619		0.563875555992	0.503914104146
26.84	19.8926429749	19.678		0.386373996735	0.400330428101
26.94	19.923789978	19.732		0.311474114656	0.291608711632
27.04	19.9433021545	19.781		0.195118874311	0.256563437182
27.14	19.9477767944	19.826		0.0443089418113	0.347461506322
27.24	19.9477767944	19.866		0.0	0.456958602876
27.34	19.9477767944	19.901		0.0	0.527626823126
27.44	19.9477767944	19.931		0.0	0.810084981849
27.54	19.9477767944	19.955		0.0	0.842690297817
27.64	19.9477767944	19.975		0.0	0.804841446784
27.74	19.9477767944	19.989		0.0	0.77992467147
27.84	19.9477767944	19.997		0.0	0.678022168003
27.94	19.9477767944	20.0		0.0	0.56596543369
28.04	19.9477767944	20.0		0.0	0.461171845749
28.14	19.9477767944	20.0		0.0	0.387906601787
28.24	19.9477767944	20.0		0.0	0.371407682054
28.34	19.9477767944	20.0		0.0	0.347655515768
28.44	19.9477767944	20.0		0.0	0.330553956042
28.54	19.9477767944	20.0		0.0	0.318240833039
28.64	19.9477767944	20.0		0.0	0.309375384477
28.74	19.9477767944	20.0		0.0	0.302992261513
28.84	19.9477767944	20.0		0.0	0.298396412978
28.94	19.9477767944	20.0		0.0	0.295087402033
29.04	19.9477767944	20.0		0.0	0.292704914153
29.14	19.9477767944	20.0		0.0	0.290989522879
29.24	19.9477767944	20.0		0.0	0.289754441162
29.34	19.9477767944	20.0		0.0	0.288865182326
29.44	19.9477767944	20.0		0.0	0.288224915963
29.54	19.9477767944	20.0		0.0	0.287763924183
29.64	19.9477767944	20.0		0.0	0.287432010101
29.74	19.9477767944	20.0		0.0	0.287193031961
29.84	19.9477767944	20.0		0.0	0.287020967701
29.94	19.9477767944	20.0		0.0	0.286897081434
30.04	19.9477767944	20.0		0.0	0.286807883321
30.14	19.9477767944	20.0		0.0	0.28674366068
30.24	19.9477767944	20.0		0.0	0.286697420379
30.34	19.9477767944	20.0		0.0	0.286664127362
30.44	19.9477767944	20.0		0.0	0.286640156389
30.54	19.9477767944	20.0		0.0	0.286622897289
30.64	19.9477767944	20.0		0.0	0.286610470737
30.74	19.9477767944	20.0		0.0	0.28660152362
30.84	19.9477767944	20.0		0.0	0.286595081695
30.94	19.9477767944	20.0		0.0	0.28659044351
31.04	19.9477767944	20.0		0.0	0.286587104016
31.14	19.9477767944	20.0		0.0	0.28658469958
31.24	19.9477767944	20.0		0.0	0.286582968387
31.34	19.9477767944	20.0		0.0	0.286581721928
31.44	19.9477767944	20.0		0.0	0.286580824477
31.54	19.9477767944	20.0		0.0	0.286580178312
31.64	19.9477767944	20.0		0.0	0.286579713074
31.74	19.9477767944	20.0		0.0	0.286579378102
31.84	19.9477767944	20.0		0.0	0.286579136923
31.94	19.9477767944	20.0		0.0	0.286578963273
32.04	19.9477767944	20.0		0.0	0.286578838246
32.14	19.9477767944	20.0		0.0	0.286578748226
32.24	19.9477767944	20.0		0.0	0.286578683412
32.34	19.9477767944	20.0		0.0	0.286578636745
32.44	19.9477767944	20.0		0.0	0.286578603146
32.54	19.9477767944	20.0		0.0	0.286578578954
32.64	19.9477767944	20.0		0.0	0.286578561536
32.74	19.9477767944	20.0		0.0	0.286578548995
32.84	19.9477767944	20.0		0.0	0.286578539965
32.94	19.9477767944	20.0		0.0	0.286578533464
33.04	19.9477767944	19.999		0.0	0.286578528783
33.14	19.9477767944	19.997		0.0	0.264089036776
33.24	19.9477767944	19.994		0.0	0.24408721258
33.34	19.9477767944	19.989		0.0	0.221918861179
33.44	19.9477767944	19.983		0.0	0.175701121556
33.54	19.9477767944	19.976		0.0	0.153337409733
33.64	19.9477767944	19.968		0.0	0.125510851216
33.74	19.9477767944	19.958		0.0	0.0977086911054
33.84	19.9477767944	19.947		0.0	0.0474346092106
33.94	19.9477767944	19.935		0.0	0.0221503309523
34.04	19.9477767944	19.921		0.0	0.0221503309523
34.14	19.9477767944	19.906		0.0	0.0221503309523
34.24	19.9477767944	19.89		0.0	0.288685604777
34.34	19.9477767944	19.873		0.0	0.288685604777
34.44	19.9477767944	19.855		0.0	0.288685604777
34.54	19.9477767944	19.835		0.0	-0.295023939089
34.64	19.9479560852	19.814		0.00179008126725	-1.12240548609
34.74	19.9680042267	19.792		0.198504030704	-1.56402964506
34.84	19.9475975037	19.769		-0.202279180288	-1.58044811262
34.94	19.9200305939	19.745		-0.272943079472	-1.69356259025
35.04	19.8869132996	19.72		-0.331165015697	-1.77584176886
35.14	19.8478889465	19.693		-0.390237748623	-1.81281102502
35.24	19.8022422791	19.665		-0.45195120573	-1.81921955917
35.34	19.7548046112	19.636		-0.474371522665	-1.79708658418
35.44	19.7079048157	19.606		-0.46900126338	-1.78440793759
35.54	19.6593933105	19.575		-0.480308890343	-1.51119450124
35.64	19.6099872589	19.543		-0.494062423706	-1.43038703812
35.74	19.5632667542	19.51		-0.467211216688	-1.40594818863
35.84	19.521736145	19.475		-0.409414619207	-1.43349028762
35.94	19.4773426056	19.44		-0.443940162659	-1.43769893428
36.04	19.4347381592	19.403		-0.42603930831	-1.43254133538
36.14	19.3967876434	19.366		-0.375739842653	-1.5154411243
36.24	19.3557949066	19.327		-0.409928590059	-1.49541690604
36.34	19.3173084259	19.287		-0.377321064472	-1.5704525305
36.44	19.2793579102	19.247		-0.379497230053	-1.59774658637
36.54	19.2372913361	19.205		-0.416504055262	-1.57734805173
36.64	19.1966571808	19.162		-0.402325212955	-1.6352796817
36.74	19.1544113159	19.118		-0.422459185123	-1.6352796817
36.84	19.1114501953	19.074		-0.429619520903	-1.64165995341
36.94	19.07081604	19.028		-0.400552839041	-1.68027691288
37.04	19.0264225006	18.981		-0.443940162659	-1.68027691288
37.14	18.9816703796	18.933		-0.445730239153	-1.70228143832
37.24	18.9816703796	18.885		-0.445730239153	-1.71513905538
37.34	18.938709259	18.835		-0.419440627098	-2.83760256036
37.44	18.8848285675	18.785		-0.537024378777	-1.59731061155
37.54	18.8293361664	18.733		-0.549430847168	-1.78517807071
37.64	18.7715167999	18.681		-0.578196227551	-1.76367850339
37.74	18.7165603638	18.627		-0.549554944038	-1.74294222333
37.84	18.6612472534	18.573		-0.547658443451	-1.7734802549
37.94	18.6082611084	18.518		-0.5298640728	-1.77199618151
38.04	18.5552749634	18.462		-0.5298640728	-1.79555522577
38.14	18.4992446899	18.405		-0.55474793911	-1.79612732634
38.24	18.4441108704	18.347		-0.551345050335	-1.81557696016
38.34	18.3911247253	18.289		-0.5298640728	-1.85301946172
38.44	18.3417186737	18.229		-0.487398326397	-1.89300261213
38.54	18.2951774597	18.169		-0.465421140194	-1.97455800129
38.64	18.2438030243	18.108		-0.513753354549	-2.27597513283
38.74	18.1856250763	18.046		-0.576016187668	-2.40480074499
38.84	18.1252994537	17.983		-0.603257417679	-2.52329968631
38.94	18.0626468658	17.92		-0.620325148106	-2.63879687997
39.04	17.9996356964	17.855		-0.628318548203	-2.72976522726
39.14	17.936088562	17.79		-0.633688807487	-2.87139339179
39.24	17.8632316589	17.724		-0.721349596977	-2.85423820305
39.34	17.7903747559	17.657		-0.728563010693	-2.61292744822
39.44	17.7119693756	17.59		-0.784055531025	-2.51598713559
39.54	17.6340999603	17.521		-0.76920324564	-2.46328049913
39.64	17.5560531616	17.452		-0.778685331345	-2.46046225389
39.74	17.4831962585	17.383		-0.728563010693	-2.46737067688
39.84	17.4089069366	17.312		-0.728317320347	-2.4639749227
39.94	17.3360500336	17.241		-0.728563010693	-2.50531927692
40.04	17.2628364563	17.169		-0.724894225597	-2.50146514226
40.14	17.1871166229	17.096		-0.757204353809	-2.50042912385
